-8.648206471222485163e-11
-1.920453201108239118e-10
-3.002952778571240534e-10
-3.872929010242981223e-10
-4.250065142427173891e-10
-3.870749483559468560e-10
-2.563518936351608433e-10
-3.317598645399851056e-11
2.720450932749063273e-10
5.834856804781956003e-10
8.134383465911314409e-10
8.495643726403613817e-10
5.609673655638839831e-10
-1.675071319106790185e-10
-1.436731526556670296e-09
-3.299721311590627475e-09
-5.728569108185316453e-09
-8.615062647790154571e-09
-1.175250735560811949e-08
-1.486951120008531194e-08
-1.767254426104267917e-08
-1.984479455269829943e-08
-2.113325448081756722e-08
-2.138431636306715630e-08
-2.061252843137727929e-08
-1.905277960437069447e-08
-1.719128831205886972e-08
-1.572053831943131534e-08
-1.547520837297346650e-08
-1.737876986095488215e-08
-2.227758866260799420e-08
-3.087215785211507928e-08
-4.352841089751567026e-08
-6.019817309120953976e-08
-8.034458117651498051e-08
-1.029259816557683701e-07
-1.264845421875636575e-07
-1.492836561410842146e-07
-1.695378275235805523e-07
-1.856895902612565249e-07
-1.966749811704350891e-07
-2.021979860494947529e-07
-2.029140785977535379e-07
-2.005397725405928526e-07
-1.978016729403454994e-07
-1.982353547597140297e-07
-2.058520110779587911e-07
-2.246503096091342670e-07
-2.580596333674940998e-07
-3.084263744919009294e-07
-3.765198388620210172e-07
-4.612041065626473452e-07
-5.593349980175585610e-07
-6.659409731773088000e-07
-7.746449910688212214e-07
-8.784468869827951378e-07
-9.705933909833457739e-07
-1.045665909106924677e-06
-1.100535024729262210e-06
-1.135196272582569121e-06
-1.153261910687675489e-06
-1.162049576627953702e-06
-1.172141542524448173e-06
-1.196434624094215599e-06
-1.248736708729308252e-06
-1.342098252468778148e-06
-1.486975181086049846e-06
-1.689489167099548889e-06
-1.950110522322794116e-06
-2.262921250147716377e-06
-2.615708411270573578e-06
-2.990912078455538984e-06
-3.367408405366564559e-06
-3.723045743474274280e-06
-4.037616422057520059e-06
-4.296006023272095324e-06
-4.490992499118521795e-06
-4.625275402566304972e-06
-4.712435728170058790e-06
-4.776517456947218027e-06
-4.850073702293862041e-06
-4.970836981139688559e-06
-5.177325510546225254e-06
-5.503920713291615662e-06
-5.975932325629186324e-06
-6.605327879886632700e-06
-7.387834221450808893e-06
-8.301898806596824697e-06
-9.309879929911808882e-06
-1.036156638624145168e-05
-1.139976355327911337e-05
-1.236744995821389077e-05
-1.321559713525030885e-05
-1.391075068942676911e-05
-1.444127036614705549e-05
-1.482124658323786863e-05
-1.509134870794410675e-05
-1.531618769928872595e-05
-1.557824279393813123e-05
-1.596870676940591639e-05
-1.657640563245224393e-05
-1.747593545458660664e-05
-1.871660629673787375e-05
-2.031379128471095917e-05
-2.224402761128272548e-05
-2.444486933566347221e-05
-2.681998515492238332e-05
-2.924920959893840549e-05
-3.160268234104795566e-05
-3.375755338950468717e-05
-3.561512087830921730e-05
-3.711625818102182433e-05
-3.825275762692080035e-05
-3.907289035731842549e-05
-3.967981389317424851e-05
-4.022251837768505816e-05
-4.087993527053511726e-05
-4.183973117565160417e-05
-4.327427714098346762e-05
-4.531676045640803364e-05
-4.804069701573752060e-05
-5.144586075602393144e-05
-5.545298610107641537e-05
-5.990863971427342564e-05
-6.460039106165483137e-05
-6.928096733852074176e-05
-7.369881598418503120e-05
-7.763149862251568869e-05
-8.091746528478231258e-05
-8.348193534736185570e-05
-8.535294119989606161e-05
-8.666464798143541789e-05
-8.764665280229772643e-05
-8.859969123378435977e-05
-8.986017344347924801e-05
-9.175748442025629108e-05
-9.456942589688132879e-05
-9.848166942994152811e-05
-1.035569949218649556e-04
-1.097190998927601583e-04
-1.167541650554583966e-04
-1.243310768872705433e-04
-1.320387167840984235e-04
-1.394364421812113763e-04
-1.461115447933230681e-04
-1.517364710759078813e-04
-1.561177910392766129e-04
-1.592298514745045003e-04
-1.612274715437563054e-04
-1.624347358620115806e-04
-1.633098816720268817e-04
-1.643897760460145876e-04
-1.662202589578137336e-04
-1.692812091974331065e-04
-1.739163176881610763e-04
-1.802775000693598720e-04
-1.882926229612634451e-04
-1.976622964180174431e-04
-2.078879423451691791e-04
-2.183290412568531208e-04
-2.282833463017638453e-04
-2.370801625708079713e-04
-2.441744890605830436e-04
-2.492288353243976985e-04
-2.521705406540133325e-04
-2.532150295605779919e-04
-2.528497798561007352e-04
-2.517787981098432160e-04
-2.508331708120455539e-04
-2.508582495921321889e-04
-2.525920284369636637e-04
-2.565514358707623251e-04
-2.629432370058578847e-04
-2.716136907176458157e-04
-2.820466045883799461e-04
-2.934131735884233302e-04
-3.046696732072433486e-04
-3.146921637227753968e-04
-3.224312728119108420e-04
-3.270661482212734597e-04
-3.281354441283302107e-04
-3.256249299675940869e-04
-3.199961475184748836e-04
-3.121480049635519155e-04
-3.033121510174051501e-04
-2.948925955536582503e-04
-2.882687540702532324e-04
-2.845877431087307907e-04
-2.845750891399863184e-04
-2.883924650210517755e-04
-2.955665003514271021e-04
-3.050041603252712295e-04
-3.150989909426494271e-04
-3.239198384637007998e-04
-3.294610721348737261e-04
-3.299230836912230382e-04
-3.239851296083826157e-04
-3.110306367823945095e-04
-2.912890010741152119e-04
-2.658668834763240185e-04
-2.366557601112693945e-04
-2.061190511052881833e-04
-1.769794810241414858e-04
-1.518432370954612141e-04
-1.328092261845976714e-04
-1.211178413986750029e-04
-1.168921875323727737e-04
-1.190160664505347723e-04
-1.251770900164564989e-04
-1.320825447690922229e-04
-1.358316765802490144e-04
-1.324050060645490267e-04
-1.182116183049356092e-04
-9.062243138595735194e-05
-4.841379628228171508e-05
7.947924906562071678e-06
7.623364325054766239e-05
1.526181212454503198e-04
2.320824820624533961e-04
3.090162256461672892e-04
3.779517413867495321e-04
4.343408222538896698e-04
4.752695268687359828e-04
5.000080228745511311e-04
5.103064825145611598e-04
5.103759227224872628e-04
5.065312191811459494e-04
5.065178131820702399e-04
5.185886837599507342e-04
5.504372177656581284e-04
6.081196915841133917e-04
6.951126700703178169e-04
8.116438192342067528e-04
9.544080058383295085e-04
1.116737332796789717e-03
1.289237452566543637e-03
1.460840741178325887e-03
1.620166821899790338e-03
1.757031471143966333e-03
1.863912904174345325e-03
1.937175857122176584e-03
1.977871443616165473e-03
1.991974012206649408e-03
1.989981172150920297e-03
1.985882625264619606e-03
1.995588202088239768e-03
2.034983788470766299e-03
2.117845839610408253e-03
2.253880376251060462e-03
2.447155148330116322e-03
2.695160609721698741e-03
2.988668941986825228e-03
3.312466858606304566e-03
3.646927818229575135e-03
3.970276156069766499e-03
4.261294196016210747e-03
4.502147813076247569e-03
4.680967986383989532e-03
4.793833143293470787e-03
4.845851348022041719e-03
4.851139314757032910e-03
4.831625718373420628e-03
4.814755489765455178e-03
4.830320523815876885e-03
4.906771368778223980e-03
5.067455470687896868e-03
5.327266591315637720e-03
5.690167863472144795e-03
6.147967418748610281e-03
6.680586862996737950e-03
7.257884431210346980e-03
7.842896600771642746e-03
8.396169295543791031e-03
8.880687747821094935e-03
9.266805630749061842e-03
9.536536849328522414e-03
9.686616244220075042e-03
9.729857950808587855e-03
9.694531189423063328e-03
9.621712057455338377e-03
9.560828457362023636e-03
9.563861366641477485e-03
9.678866534171286576e-03
9.943607752893234009e-03
1.038012559371945427e-02
1.099099358943834807e-02
1.175784144629224252e-02
1.264246726559195046e-02
1.359054743784117100e-02
1.453762008173131379e-02
1.541670795975398113e-02
1.616670069459865203e-02
1.674046901658039072e-02
1.711166009249568201e-02
1.727923291117945681e-02
1.726902897651447222e-02
1.713201333291486383e-02
1.693922582549529585e-02
1.677390440885853304e-02
1.672162807562952228e-02
1.685962520144588736e-02
1.724656091008164652e-02
1.791412633376304048e-02
1.886159349985370645e-02
2.005418392350449483e-02
2.142565852281966624e-02
2.288502134778959071e-02
2.432670182804473613e-02
2.564310564790952054e-02
2.673806733486707582e-02
2.753954858520859042e-02
2.800993837280278675e-02
2.815253228879468009e-02
2.801318144151070458e-02
2.767666293823874135e-02
2.725796963241345836e-02
2.688936926635115965e-02
2.670465921553475536e-02
2.682246617023246321e-02
2.733064924568123083e-02
2.827382340943732433e-02
2.964572134704485801e-02
3.138758176188481686e-02
3.339304703008379865e-02
3.551925470755318975e-02
3.760301197600413731e-02
3.948025127389338113e-02
4.100647109689561226e-02
4.207563918722992402e-02
4.263511760308476284e-02
4.269456277953151413e-02
4.232742321516463901e-02
4.166452946051634604e-02
4.088024448344393380e-02
4.017259790294093469e-02
3.973964384645641695e-02
3.975484946773896050e-02
4.034455774403294948e-02
4.157043014971061740e-02
4.341926432166139799e-02
4.580174838822160394e-02
4.856064981281034421e-02
5.148776839047657095e-02
5.434785384884072146e-02
5.690674442252333792e-02
5.896034959228569489e-02
6.036087195629676050e-02
6.103688375215698958e-02
6.100453203073850916e-02
6.036817613594215592e-02
5.931004386713102650e-02
5.806987393167039463e-02
5.691681877774910220e-02
5.611694259170614540e-02
5.590031814768692264e-02
5.643190197752048082e-02
5.779000818375772813e-02
5.995533246093052993e-02
6.281219257558422198e-02
6.616210061594900160e-02
6.974815688772677269e-02
7.328726597447376978e-02
7.650602326748098814e-02
7.917547221788993894e-02
8.113989706197451135e-02
8.233542643684040041e-02
8.279543133049266368e-02
8.264137559817824608e-02
8.205972273634187797e-02
8.126747371220582883e-02
8.047064957824286158e-02
7.982129507558245740e-02
7.937917129406490968e-02
7.908410814256958132e-02
7.874397821263408315e-02
7.804151369213849221e-02
7.656089762129142384e-02
7.383248201892050888e-02
6.939143304334048634e-02
6.284390713103361892e-02
5.393282833836358925e-02
4.259470453773688686e-02
2.899932992380814881e-02
1.356569053538116479e-02
-3.050195354976867248e-03
-1.999664909618411104e-02
-3.629457677281511946e-02
-5.092680575428074063e-02
-6.293975678501662063e-02
-7.154658484917168770e-02
-7.621998449289389688e-02
-7.676327684332981405e-02
-7.335020551164188329e-02
-6.652693070027029809e-02
-5.717372805953688242e-02
-4.642844331931940405e-02
-3.557831112942021895e-02
-2.593077267792416943e-02
-1.867691392388299773e-02
-1.476268460304132855e-02
-1.478289045127769222e-02
-1.891101086416144966e-02
-2.687432398116498811e-02
-3.797896358885854973e-02
-5.118390142322507691e-02
-6.521707369904838902e-02
-7.872162979260724502e-02
-9.041621895920619323e-02
-9.925088491601496976e-02
-1.045398650499531068e-01
-1.060545205378857492e-01
-1.040636294380093557e-01
-9.931398035757800502e-02
-9.295101368136882147e-02
-8.638641800935002724e-02
-8.112627210095227359e-02
-7.857871579655038852e-02
-7.986354072233391166e-02
-8.564701565420811125e-02
-9.602347470962870057e-02
-1.104607760271845152e-01
-1.278200730107559024e-01
-1.464520970983833603e-01
-1.643632120676841168e-01
-1.794358678515058925e-01
-1.896807708032843542e-01
-1.934930060817393327e-01
-1.898821908480208265e-01
-1.786478968884754326e-01
-1.604760911693650371e-01
-1.369398563589594719e-01
-1.103974707493610152e-01
-8.379205785138015006e-02
-6.036827902570290894e-02
-4.333169264270413795e-02
-3.548426499529504230e-02
-3.887412104523062240e-02
-5.449831676386960450e-02
-8.209395030833319118e-02
-1.200455037131135660e-01
-1.654255531230957865e-01
-2.141729215378067042e-01
-2.613982746170706584e-01
-3.017935309190171167e-01
-3.301097268736211676e-01
-3.416594397318578613e-01
-3.327955258815714634e-01
-3.013183591252589499e-01
-2.467690500730328196e-01
-1.705758818784821051e-01
-7.603452276222807948e-02
3.188180475396943520e-02
1.468696443820650954e-01
2.617720810909107132e-01
3.691439257367820637e-01
4.618550764277746801e-01
5.336774314900374350e-01
5.798016255592864932e-01
5.972360044895289599e-01
5.850510678056186631e-01
5.444470341461520313e-01
4.786387979564928341e-01
3.925696942393966382e-01
2.924814680506813147e-01
1.853810749533045255e-01
7.845412232608722780e-02
-2.152097882691625039e-02
-1.087051167915827343e-01
-1.786299626502777516e-01
-2.284925589206193985e-01
-2.572906450740047313e-01
-2.657921196500286354e-01
-2.563480533472720646e-01
-2.325733205671082493e-01
-1.989307710353562242e-01
-1.602627987099497775e-01
-1.213174904163737411e-01
-8.631505077620689470e-02
-5.859420266599976723e-02
-4.036851134144935072e-02
-3.261019970711117461e-02
-3.506537563315633571e-02
-4.639113144728695265e-02
-6.439308730899123701e-02
-8.633280688401151481e-02
-1.092689608911339011e-01
-1.303945858900329990e-01
-1.473352755064572250e-01
-1.583792140228960088e-01
-1.626188186282416515e-01
-1.599943286560367717e-01
-1.512407589744294290e-01
-1.377500044911100785e-01
-1.213684542666462612e-01
-1.041563979710995042e-01
-8.813825943763475834e-02
-7.507211616219171268e-02
-6.626327651304568522e-02
-6.244043881340351904e-02
-6.370495842354575999e-02
-6.955497126890404502e-02
-7.897758001482212131e-02
-9.059494852864001524e-02
-1.028447437753289423e-01
-1.141724329370045199e-01
-1.232127055000963450e-01
-1.289396511755080132e-01
-1.307699001995208110e-01
-1.286091015969650364e-01
-1.228391032090131035e-01
-1.142501682257864165e-01
-1.039287178582052606e-01
-9.311575712467623500e-02
-8.305384768598915446e-02
-7.484101056368429317e-02
-6.930830612777208466e-02
-6.693433093250973631e-02
-6.780497612209819558e-02
-7.162113786890261791e-02
-7.775134556946203257e-02
-8.532114813965643862e-02
-9.332714534654393268e-02
-1.007611824962576785e-01
-1.067296550405839872e-01
-1.105540874648590216e-01
-1.118419426278503964e-01
-1.105205922218154557e-01
-1.068320207755619339e-01
-1.012905725863444684e-01
-9.461032135670822962e-02
-8.761196096101334096e-02
-8.112112987601324821e-02
-7.587060389277081041e-02
-7.241781971917993221e-02
-7.108689881428632840e-02
-7.194104982303428653e-02
-7.478736805012325961e-02
-7.921210193285224688e-02
-8.464089185643398905e-02
-9.041571551970761789e-02
-9.587859661760331220e-02
-1.004517083120474025e-01
-1.037043345657171767e-01
-1.053990949073006084e-01
-1.055126190534632774e-01
-1.042291140111356457e-01
-1.019085914261673859e-01
-9.903451612976228724e-02
-9.614795192652561551e-02
-9.377666326929141871e-02
-9.236794932925471158e-02
-9.223323764779391143e-02
-9.351077540738186866e-02
-9.615036194197727759e-02
-9.992127737953956923e-02
-1.044417285047610222e-01
-1.092255953657529921e-01
-1.137403167816409683e-01
-1.174686144337033916e-01
-1.199665342079671571e-01
-1.209109773030621199e-01
-1.201313892402952194e-01
-1.176223663406142650e-01
-1.135363555350612647e-01
-1.081580620182848590e-01
-1.018643449501493853e-01
-9.507502006120241433e-02
-8.820091666530610608e-02
-8.159566387128845688e-02
-7.551701398086474448e-02
-7.010215414808004808e-02
-6.535959443928456014e-02
-6.117809230499113987e-02
-5.735094652418114974e-02
-5.361212747475722212e-02
-4.967932671567398817e-02
-4.529826418126978171e-02
-4.028256265753576981e-02
-3.454417309289584820e-02
-2.811061343998791373e-02
-2.112699836650647894e-02
-1.384276885105206224e-02
-6.584938079435850508e-03
2.786794983085857935e-04
6.381593745752268607e-03
1.140085473161542122e-02
1.509415040856286472e-02
1.732727352808466695e-02
1.808868698605152134e-02
1.748954425708647634e-02
1.574932998546360249e-02
1.316905127122108485e-02
1.009541665784523604e-02
6.880505584187796529e-03
3.841929663442049999e-03
1.228363609943705463e-03
-8.054016878967380213e-04
-2.210963917227074058e-03
-3.045035904701896921e-03
-3.454796019132909662e-03
-3.651940883748994778e-03
-3.878926800312413117e-03
-4.371852499106040207e-03
-5.324841270966610557e-03
-6.860575587064931223e-03
-9.010846931054911427e-03
-1.170970521689673922e-02
-1.480018248832909791e-02
-1.805382398275311856e-02
-2.120060171138698005e-02
-2.396541814433819986e-02
-2.610650396232233952e-02
-2.745069062407235611e-02
-2.792084382240077323e-02
-2.755164736552775245e-02
-2.649132614541441916e-02
-2.498862570057923740e-02
-2.336621616150895767e-02
-2.198343390217978588e-02
-2.119269713854932125e-02
-2.129485073756580762e-02
-2.249898616980260807e-02
-2.489189634744295998e-02
-2.842129308558338091e-02
-3.289534898483604392e-02
-3.799920343669245526e-02
-4.332702026934195233e-02
-4.842624780940336937e-02
-5.284914963883895200e-02
-5.620564566782951244e-02
-5.821116758513401185e-02
-5.872364770383046301e-02
-5.776489494471073044e-02
-5.552334773494987247e-02
-5.233733722977833291e-02
-4.866029775970973775e-02
-4.501155235600999560e-02
-4.191811339386433688e-02
-3.985414499582991960e-02
-3.918517490914585899e-02
-4.012374761008823815e-02
-4.270200418164638717e-02
-4.676478354798983134e-02
-5.198447419053942031e-02
-5.789627869517040976e-02
-6.395008922216473268e-02
-6.957310894222405728e-02
-7.423595137816585421e-02
-7.751439037349931727e-02
-7.913930610218526673e-02
-7.902865356853493173e-02
-7.729733600334719179e-02
-7.424346490968393442e-02
-7.031232850188207095e-02
-6.604213087325853937e-02
-6.199786866932364970e-02
-5.870128806774876917e-02
-5.656550143266882852e-02
-5.584243839534289156e-02
-5.658988356055589392e-02
-5.866256121529327822e-02
-6.172882585478680489e-02
-6.531134829839679856e-02
-6.884713619998962530e-02
-7.175967643203992608e-02
-7.353426699939005773e-02
-7.378695729929407587e-02
-7.231805162377888396e-02
-6.914282280010732029e-02
-6.449475648167410369e-02
-5.880000151574622802e-02
-5.262534086436106151e-02
-4.660547541566075619e-02
-4.135828803637064954e-02
-3.739864412848876302e-02
-3.506191391767332632e-02
-3.444764215400225593e-02
-3.539168224035789401e-02
-3.747186296625973356e-02
-4.004822534807214729e-02
-4.233452459291685982e-02
-4.349356670646582074e-02
-4.274556294338614088e-02
-3.947649321165426495e-02
-3.333279605919006738e-02
-2.428970100543700189e-02
-1.268314040199969642e-02
8.008260082817981323e-04
1.518020006427129795e-02
2.927065269969061218e-02
4.180929001845783144e-02
5.159514149323402715e-02
5.763020023779377721e-02
5.924395553498280897e-02
5.618550781345695022e-02
4.867050184660564466e-02
3.737496699231639824e-02
2.337420424923777884e-02
8.031432439704083714e-03
-7.152772601289886754e-03
-2.071391754470920318e-02
-3.140000324333652032e-02
-3.832965457799306780e-02
-4.111186719317468791e-02
-3.991090586213787150e-02
-3.544569266979533811e-02
-2.892040421926302465e-02
-2.189114996759072146e-02
-1.608159269040199818e-02
-1.316723569925970332e-02
-1.455296679736059126e-02
-2.117063729700567609e-02
-3.332257025317887644e-02
-5.059288280632263241e-02
-7.184168459198288226e-02
-9.528823368569712404e-02
-1.186789317803715743e-01
-1.395257480679015227e-01
-1.553914671245350265e-01
-1.641911807876297869e-01
-1.644756077347671597e-01
-1.556617299636394447e-01
-1.381800879126124926e-01
-1.135156410829942369e-01
-8.412971362410812115e-02
-5.326316460714142220e-02
-2.463423940148540617e-02
-2.057122626861685160e-03
1.098240320367081628e-02
1.175083515781667060e-02
-1.355595309115174450e-03
-2.852361169265104843e-02
-6.836239561334166159e-02
-1.178952554417113802e-01
-1.727142573409438664e-01
-2.272922419460024490e-01
-2.754301185421464959e-01
-3.108023766569766866e-01
-3.275520075113471652e-01
-3.208788233132133239e-01
-2.875633995718415159e-01
-2.263728995681863476e-01
-1.383046269701594666e-01
-2.663746689700679723e-02
1.032209201608200455e-01
2.440839090857715721e-01
3.875063545449449753e-01
5.244323508812038792e-01
6.459139642868159115e-01
7.438368554513036246e-01
8.115871013794777600e-01
8.445982728274084028e-01
8.407285130548142194e-01
8.004329740355061729e-01
7.267159734526364989e-01
6.248677684727172998e-01
5.020108714054561938e-01
3.664983832719682644e-01
2.272201720826599880e-01
9.288058521760204911e-02
-2.868696913425439546e-02
-1.311079020602642364e-01
-2.099065505230624240e-01
-2.627633600625573496e-01
-2.895721548402286905e-01
-2.922998855990258105e-01
-2.746698897341853796e-01
-2.417057696169680192e-01
-1.991849488909800958e-01
-1.530577183005225606e-01
-1.088885987974373554e-01
-7.137219902400213090e-02
-4.396607462751179335e-02
-2.866955331288792430e-02
-2.596158454998905712e-02
-3.489411523138709337e-02
-5.332200734430263961e-02
-7.823765569553858823e-02
-1.061694618645089433e-01
-1.335989574406726832e-01
-1.573519107133203032e-01
-1.749239355672517482e-01
-1.847102061920648242e-01
-1.861207359282026075e-01
-1.795759219760552916e-01
-1.663902128421594073e-01
-1.485634143184346445e-01
-1.285081224949964351e-01
-1.087472072733540740e-01
-9.161673622032405484e-02
-7.900724455982797989e-02
-7.217027417664141631e-02
-7.160843793596236018e-02
-7.705699383845156236e-02
-8.755424657676633138e-02
-1.015882344825733419e-01
-1.172991724663351304e-01
-1.327118142552853042e-01
-1.459697485927571592e-01
-1.555447549055128387e-01
-1.603984469907128729e-01
-1.600799348526661670e-01
-1.547512933770106847e-01
-1.451412620070637316e-01
-1.324358037584577319e-01
-1.181210090429510445e-01
-1.037986139811388070e-01
-9.099665427072736734e-02
-8.099734253293928987e-02
-7.470130074966310763e-02
-7.254224459883133747e-02
-7.445976772175995351e-02
-7.993081281930015936e-02
-8.805358274188773704e-02
-9.767181890279903744e-02
-1.075231897092289030e-01
-1.163934074931101403e-01
-1.232577929524689558e-01
-1.273942309609721324e-01
-1.284554689687257001e-01
-1.264939627868098271e-01
-1.219383129766987567e-01
-1.155260561066536046e-01
-1.082025142271533236e-01
-1.009990166149619117e-01
-9.490571797501533291e-02
-9.075428719143295575e-02
-8.912399427286206433e-02
-9.028145087776665023e-02
-9.415990229743106954e-02
-1.003790759150810646e-01
-1.083017565880023819e-01
-1.171190489267245755e-01
-1.259531715778098027e-01
-1.339649369009729696e-01
-1.404529493743751911e-01
-1.449329671810636322e-01
-1.471885953757146037e-01
-1.472881513108050822e-01
-1.455666999138719164e-01
-1.425763952171398008e-01
-1.390119000827241547e-01
-1.356203799972180990e-01
-1.331070918621565791e-01
-1.320477760771779363e-01
-1.328179340286922139e-01
-1.355468089589032532e-01
-1.401007892414484757e-01
-1.460974084296668141e-01
-1.529475541186342546e-01
-1.599203326632427369e-01
-1.662226222445424839e-01
-1.710839363428543203e-01
-1.738369399357644340e-01
-1.739848023946126421e-01
-1.712483938763211533e-01
-1.655888870085098219e-01
-1.572042871039674716e-01
-1.465014228122625828e-01
-1.340476325949527814e-01
-1.205084789703411013e-01
-1.065790942062726510e-01
-9.291709370119528855e-02
-8.008439027005191668e-02
-6.850381482508578757e-02
-5.843440346627044868e-02
-4.996681567443848199e-02
-4.303790460324270067e-02
-3.746126131319903879e-02
-3.296885115669567073e-02
-2.925783505256143377e-02
-2.603641283515878424e-02
-2.306303586298660141e-02
-2.017451438640660913e-02
-1.730021771584983742e-02
-1.446150279430311741e-02
-1.175745915902327507e-02
-9.339780268381201594e-03
-7.380857907910842210e-03
-6.039902203620795343e-03
-5.431947921631004490e-03
-5.604034410656336118e-03
-6.521735712117497641e-03
-8.067729045755481915e-03
-1.005242551511758599e-02
-1.223506546073407225e-02
-1.435230937436833901e-02
-1.615040431842144214e-02
-1.741658771000429567e-02
-1.800554824803190374e-02
-1.785746526520807023e-02
-1.700529250287393518e-02
-1.557038549794969619e-02
-1.374710249321451326e-02
-1.177843931005997762e-02
-9.925904266586465727e-03
-8.437555790281750859e-03
-7.518324498001018735e-03
-7.306402446877531542e-03
-7.858653807242660036e-03
-9.146793677561510655e-03
-1.106465544864183165e-02
-1.344540721868951565e-02
-1.608627555427550107e-02
-1.877735844211098765e-02
-2.133058708210639615e-02
-2.360489479267647780e-02
-2.552417305015137680e-02
-2.708557224062527191e-02
-2.835701144013893713e-02
-2.946422872600740553e-02
-3.056913816446291121e-02
-3.184247338751300394e-02
-3.343452699444213888e-02
-3.544812600338273501e-02
-3.791776374711369052e-02
-4.079805845336350462e-02
-4.396351541085544157e-02
-4.722008213458166181e-02
-5.032739231147646819e-02
-5.302910140943592476e-02
-5.508752334127292594e-02
-5.631804754403857416e-02
-5.661865821560641693e-02
-5.599032976622280583e-02
-5.454509594822541663e-02
-5.250006927050489269e-02
-5.015744776344396860e-02
-4.787236934418032108e-02
-4.601212916831154409e-02
-4.491154349501710191e-02
-4.482995022548223046e-02
-4.591536979747030262e-02
-4.818068363123532982e-02
-5.149537813147245235e-02
-5.559459374255082409e-02
-6.010511945573544790e-02
-6.458583813614705849e-02
-6.857822258985699082e-02
-7.166105453094384625e-02
-7.350278455237062303e-02
-7.390498887015534146e-02
-7.283123239974190199e-02
-7.041724051375373994e-02
-6.696044127108369270e-02
-6.288941823157999378e-02
-5.871631345414827369e-02
-5.497743187300734025e-02
-5.216893668081508395e-02
-5.068536683084354927e-02
-5.076861988459901304e-02
-5.247400501916466009e-02
-5.565807702918745131e-02
-5.999041836778019887e-02
-6.498863579673692936e-02
-7.007292969799223947e-02
-7.463403900090354037e-02
-7.810649340710501543e-02
-8.003817579217974154e-02
-8.014736016833705345e-02
-7.835966512707298604e-02
-7.481963095080426673e-02
-6.987464412975556705e-02
-6.403234789120793025e-02
-5.789607955326928068e-02
-5.208583870121154258e-02
-4.715442648237894857e-02
-4.350940429741737697e-02
-4.135122776623795238e-02
-4.063630084830890249e-02
-4.107091132984121151e-02
-4.213834961351000524e-02
-4.315739734355031332e-02
-4.336629381044678627e-02
-4.202275788109524624e-02
-3.850812521860060011e-02
-3.242251642398821104e-02
-2.365838708679399854e-02
-1.244184673966877708e-02
6.654049291826139630e-04
1.480614930419150467e-02
2.890726710494874452e-02
4.179139816755667036e-02
5.230875602364083721e-02
5.947406322458842487e-02
6.259210688747998685e-02
6.135589232673795829e-02
5.590383448345688511e-02
4.682667285426846820e-02
3.512039974133857739e-02
2.208784342027299979e-02
9.197917064675145346e-03
-2.082837453255518764e-03
-1.046762849220256482e-02
-1.501482009711952413e-02
-1.526075004876841466e-02
-1.130211450147878584e-02
-3.815122287351257590e-03
5.994531043415997351e-03
1.650889662784733175e-02
2.587212461855222662e-02
3.220448768460446726e-02
3.383293087230993673e-02
2.951172309066798713e-02
1.860643043315933151e-02
1.217192661467291935e-03
-2.177700090897287735e-02
-4.876318392623631842e-02
-7.752880422282948381e-02
-1.054756502240509347e-01
-1.298935589394304146e-01
-1.482661134954351700e-01
-1.585752344295884853e-01
-1.595697378824770807e-01
-1.509649537799428731e-01
-1.335463284760163849e-01
-1.091591099988727387e-01
-8.057786449198567347e-02
-5.126252279660865885e-02
-2.502053341090160893e-02
-5.606081290903133785e-03
3.704092809156856077e-03
5.140293275049135366e-04
-1.635336469126058567e-02
-4.662330347074122860e-02
-8.847196673035584435e-02
-1.385832843341773535e-01
-1.923625969973460081e-01
-2.442940455192760540e-01
-2.884131859056627833e-01
-3.188533363422181299e-01
-3.304149679353475810e-01
-3.191031276781688408e-01
-2.825790179983578287e-01
-2.204784850806562613e-01
-1.345617470939375060e-01
-2.867415691723217835e-02
9.148435033364311908e-02
2.187649914536481388e-01
3.451176677315173635e-01
4.622326561413319101e-01
5.622190330324147167e-01
6.382581226670518415e-01
6.851719693571750591e-01
6.998544013847325385e-01
6.815249652052587370e-01
6.317826113446468606e-01
5.544548634606449866e-01
4.552574238497938408e-01
3.412968538752358949e-01
2.204633680855504207e-01
1.007704923649467149e-01
-1.029756277903853302e-02
-1.063718147904061939e-01
-1.826662513242316710e-01
-2.362883418220629583e-01
-2.663691889020772252e-01
-2.740079996432015497e-01
-2.620434270423064316e-01
-2.346804725455867435e-01
-1.970144763814246913e-01
-1.545020498680614862e-01
-1.124319118851180577e-01
-7.544632206349193015e-02
-4.715655598697139628e-02
-2.988454548583497142e-02
-2.454870796285042733e-02
-3.069665783000543116e-02
-4.667255573098912785e-02
-6.989383595702029772e-02
-9.720223493914467716e-02
-1.252483173790968629e-01
-1.508674902122036643e-01
-1.714087430284320646e-01
-1.849845194823252215e-01
-1.906202733709086161e-01
-1.882941794788834944e-01
-1.788697948693931117e-01
-1.639358557224009083e-01
-1.455766592627774914e-01
-1.261027127828252270e-01
-1.077739944643231612e-01
-9.254714056110306675e-02
-8.187343894002831191e-02
-7.656732163386285872e-02
-7.675603825853709317e-02
-8.191144802920148627e-02
-9.095551629592399379e-02
-1.024231737914147039e-01
-1.146605194078324508e-01
-1.260334575842669558e-01
-1.351219574000508128e-01
-1.408780524730459116e-01
-1.427310052117958528e-01
-1.406300186737087510e-01
-1.350226222432834577e-01
-1.267744558565409851e-01
-1.170427628114211055e-01
-1.071207559364156237e-01
-9.827266000901560550e-02
-9.157944408009462134e-02
-8.781312076015262980e-02
-8.735335347918400661e-02
-9.015454381334553347e-02
-9.576527831606147789e-02
-1.033957629572741510e-01
-1.120233923922956260e-01
-1.205225001530431661e-01
-1.278020390503740444e-01
-1.329346438951724829e-01
-1.352621865261368350e-01
-1.344662723221045908e-01
-1.305966895750357015e-01
-1.240560244174271354e-01
-1.155438583180934259e-01
-1.059685616076391917e-01
-9.633817002103148286e-02
-8.764381862905157305e-02
-8.074953510571260262e-02
-7.630089027466971374e-02
-7.466228758160928236e-02
-7.588892068210359443e-02
-7.973512388779158133e-02
-8.569651269192861409e-02
-9.307947112451592231e-02
-1.010886222274298141e-01
-1.089212238229052276e-01
-1.158571123877754627e-01
-1.213338546499882903e-01
-1.249989798194205137e-01
-1.267342449641273849e-01
-1.266504309034383047e-01
-1.250547383495268783e-01
-1.223960278090049231e-01
-1.191955644658118096e-01
-1.159723348658401598e-01
-1.131722715719123418e-01
-1.111098704111967289e-01
-1.099288596260743212e-01
-1.095860375296012212e-01
-1.098594663681122657e-01
-1.103792558434719129e-01
-1.106765418570085924e-01
-1.102442584253971597e-01
-1.086021262761559109e-01
-1.053580414592176356e-01
-1.002587313746883674e-01
-9.322403360792243243e-02
-8.436123733108341627e-02
-7.395833848438886082e-02
-6.245750479923978249e-02
-5.041223983355203053e-02
-3.843343626498896271e-02
-2.713054448966061363e-02
-1.705436798149040714e-02
-8.647535719767148257e-03
-2.207586937212594955e-03
2.134005521812521160e-03
4.415439048621835026e-03
4.831324240380275269e-03
3.704856285951708354e-03
1.449123307446897229e-03
-1.477815144348248360e-03
-4.619086994766290720e-03
-7.561619596154055267e-03
-9.971132657988710998e-03
-1.161654026192163701e-02
-1.238212733588106747e-02
-1.226727333916646789e-02
-1.137481206055172660e-02
-9.890204536290959220e-03
-8.054462004157558058e-03
-6.134133810272888662e-03
-4.391666225747401474e-03
-3.059080638353172451e-03
-2.317287731247076685e-03
-2.282545173464482335e-03
-3.000686910508745895e-03
-4.448904319024876881e-03
-6.544129395355172303e-03
-9.156521598194324735e-03
-1.212622515172039235e-02
-1.528145110735579931e-02
-1.845602670026003783e-02
-2.150480759757235696e-02
-2.431571619674462517e-02
-2.681759956604079162e-02
-2.898354455840953733e-02
-3.082970536655740487e-02
-3.241006134680927964e-02
-3.380781366699130847e-02
-3.512434171087251006e-02
-3.646677555402005888e-02
-3.793530292610559213e-02
-3.961132454578539241e-02
-4.154750308201893283e-02
-4.376062042092881965e-02
-4.622796536681683666e-02
-4.888771959679476253e-02
-5.164349855703145170e-02
-5.437284717101848602e-02
-5.693910769617807621e-02
-5.920569922141011993e-02
-6.105151292577024047e-02
-6.238587826201481834e-02
-6.316143507492516518e-02
-6.338329114475053927e-02
-6.311307624175609143e-02
-6.246692305597256745e-02
-6.160699142362676545e-02
-6.072685605469498038e-02
-6.003183063572024858e-02
-5.971601504826672818e-02
-5.993843438631044074e-02
-6.080100001715411928e-02
-6.233109207000225860e-02
-6.447129796307007887e-02
-6.707823856906472426e-02
-6.993151134499346611e-02
-7.275265992643036028e-02
-7.523286051469631197e-02
-7.706683798728640455e-02
-7.798954182490447362e-02
-7.781146178918756096e-02
-7.644825899624194121e-02
-7.394069220681558086e-02
-7.046163935262059197e-02
-6.630829169624023745e-02
-6.187921228714189648e-02
-5.763772991292424874e-02
-5.406487818084620284e-02
-5.160657130111907798e-02
-5.062073312586647805e-02
-5.133050609858377800e-02
-5.378936994673626931e-02
-5.786298430642211610e-02
-6.323091189462916317e-02
-6.940923888318176194e-02
-7.579271756876095056e-02
-8.171268747909912755e-02
-8.650497315732007253e-02
-8.958047734594877520e-02
-9.049049804412764852e-02
-8.897902419212046221e-02
-8.501542794206748410e-02
-7.880297975203712224e-02
-7.076126549354259943e-02
-6.148359166518502922e-02
-5.167347956940217257e-02
-4.206700458193501219e-02
-3.334969424526774279e-02
-2.607768774455243924e-02
-2.061271585567482287e-02
-1.707915051961631306e-02
-1.534900665430167371e-02
-1.505759753472577303e-02
-1.564890403758434356e-02
-1.644604371889385463e-02
-1.673896741279332079e-02
-1.587908768477795315e-02
-1.336928912619261486e-02
-8.937889991166960216e-03
-2.586662435554511284e-03
5.394153107331723859e-03
1.444707952925231541e-02
2.380372871368734503e-02
3.257062886980435085e-02
3.983502014200271391e-02
4.477815449924195390e-02
4.678212511224270204e-02
4.551641240778131481e-02
4.099222738033684449e-02
3.357620323859547562e-02
2.395968128366324223e-02
1.308523230433301238e-02
2.037517763014384288e-03
-8.089546802941511433e-03
-1.633374159774105341e-02
-2.199614525793620531e-02
-2.474612244555871032e-02
-2.468477384147650666e-02
-2.235625080553602095e-02
-1.870221802566552835e-02
-1.496154960617866909e-02
-1.252428888724813061e-02
-1.275515241991281856e-02
-1.680661771677306043e-02
-2.544424225334628725e-02
-3.890688177031596112e-02
-5.682175782677699460e-02
-7.818903494063328408e-02
-1.014431876087817930e-01
-1.245897197440723886e-01
-1.454066943605120121e-01
-1.616920860026977436e-01
-1.715312064093660327e-01
-1.735542588359338112e-01
-1.671530794142724874e-01
-1.526286233157519989e-01
-1.312466602319105058e-01
-1.051879780475312443e-01
-7.739031937783270865e-02
-5.129117919719335117e-02
-3.049219757052149676e-02
-1.837588450379053565e-02
-1.771262896606893081e-02
-3.029943831703883761e-02
-5.667106414569982042e-02
-9.591897612928858285e-02
-1.456444019370708443e-01
-2.020591665479827548e-01
-2.602335281494075336e-01
-3.144750736708997740e-01
-3.588085763944156015e-01
-3.875150517595816191e-01
-3.956803835415518833e-01
-3.797007781619012312e-01
-3.376944164023344408e-01
-2.697759529375731158e-01
-1.781623666169474818e-01
-6.709400181209858316e-02
5.742800847949239978e-02
1.880690952124230986e-01
3.167183579006258021e-01
4.351273408951729649e-01
5.355738260178865007e-01
6.114908093291903102e-01
6.580034299622413707e-01
6.723247873197990554e-01
6.539745469259290456e-01
6.048007292603632123e-01
5.288034739885530966e-01
4.317780531690802448e-01
3.208111421922067996e-01
2.036776996952485430e-01
8.819446010447778983e-02
-1.841080931540172577e-02
-1.100577428860000095e-01
-1.822509879691171231e-01
-2.323610523400413408e-01
-2.597282364415976486e-01
-2.655868731073628419e-01
-2.528242893610032072e-01
-2.256042011100269085e-01
-1.888961669342854865e-01
-1.479601540878349997e-01
-1.078375877570874747e-01
-7.289738121651453961e-02
-4.647783563620223879e-02
-3.065388409236620426e-02
-2.614523294873672549e-02
-3.236604193482998937e-02
-4.760245580636113250e-02
-6.929201420809519285e-02
-9.436991879323232413e-02
-1.196421407253166341e-01
-1.421447637688930676e-01
-1.594526541478869242e-01
-1.699079531158794454e-01
-1.727490537785427160e-01
-1.681324420225071281e-01
-1.570517275643849020e-01
-1.411690675428012021e-01
-1.225828642624024606e-01
-1.035612591010321715e-01
-8.627307023267666297e-02
-7.254636375555377492e-02
-6.368013225181494430e-02
-6.032725452099899077e-02
-6.245795469939868783e-02
-6.940344139285531400e-02
-7.997038014842015874e-02
-9.260932215905944009e-02
-1.056149559542946953e-01
-1.173335545293987259e-01
-1.263534115327661356e-01
-1.316572170483183146e-01
-1.327207304477749927e-01
-1.295490478946575708e-01
-1.226493718804187866e-01
-1.129465692618291661e-01
-1.016541159439202369e-01
-9.011759297533893098e-02
-7.965027238423026679e-02
-7.138033466126227078e-02
-6.612699822387929638e-02
-6.431867591184560473e-02
-6.596077120990906373e-02
-7.065458548285220852e-02
-7.766276905981835121e-02
-8.601151244491266057e-02
-9.461581611370745160e-02
-1.024120877868407720e-01
-1.084821646827709429e-01
-1.121545774146658070e-01
-1.130721812370296675e-01
-1.112197219638085682e-01
-1.069099070944012214e-01
-1.007315057928000468e-01
-9.346732186227529882e-02
-8.599309017703901659e-02
-7.917010757014363020e-02
-7.374457767340443504e-02
-7.026527349330542738e-02
-6.902842989130172913e-02
-7.005514575359368667e-02
-7.310247330352795392e-02
-7.770530705522239734e-02
-8.324263908616612306e-02
-8.901912068745644613e-02
-9.435143815096767861e-02
-9.864889213826016912e-02
-1.014787268428227890e-01
-1.026089948296134563e-01
-1.020247545191767108e-01
-9.991678817509706823e-02
-9.664537849199249242e-02
-9.268459194481522279e-02
-8.855465791012601118e-02
-8.475117857724699666e-02
-8.167995932187624430e-02
-7.960524919526158760e-02
-7.861728819089841558e-02
-7.862253238244402975e-02
-7.935709574151154910e-02
-8.042115707075095377e-02
-8.132966079138471971e-02
-8.157286255371686001e-02
-8.067931871541304811e-02
-7.827387121491773125e-02
-7.412400361576824970e-02
-6.816950767797017030e-02
-6.053248774769089818e-02
-5.150707780032297983e-02
-4.153056746195937093e-02
-3.113966275682835544e-02
-2.091712391483383296e-02
-1.143487700181113759e-02
-3.199824137700263502e-03
3.391998928900017470e-03
8.088445230197204711e-03
1.079859614096378984e-02
1.159339103943672969e-02
1.069036202822556611e-02
8.424928343439686343e-03
5.211973090173355715e-03
1.502203399859215315e-03
-2.261966864976999118e-03
-5.686562688219167459e-03
-8.458517026695455340e-03
-1.036783895726356777e-02
-1.131812509023279179e-02
-1.132535925137098318e-02
-1.050613284167239980e-02
-9.057374150900996540e-03
-7.230317089501537252e-03
-5.301734161869486352e-03
-3.545410615417435036e-03
-2.206493415413692503e-03
-1.480783025257244485e-03
-1.500338302383800873e-03
-2.326026186902277644e-03
-3.946952688094613505e-03
-6.286123176058772827e-03
-9.211240401251026208e-03
-1.254927329777000972e-02
-1.610331156231345484e-02
-1.967023693558208469e-02
-2.305785751309063353e-02
-2.610033010697537792e-02
-2.867090661617613390e-02
-3.069125986678857346e-02
-3.213686271641545689e-02
-3.303810981299912242e-02
-3.347709226344083161e-02
-3.358017040414264937e-02
-3.350674640843523400e-02
-3.343491493240972195e-02
-3.354495424064447145e-02
-3.400188722849093598e-02
-3.493855755836931115e-02
-3.644078935317080631e-02
-3.853619143582181356e-02
-4.118799814654239277e-02
-4.429499490644594334e-02
-4.769806650292127831e-02
-5.119326322211788932e-02
-5.455056297475586319e-02
-5.753679455904402856e-02
-5.994056754999319003e-02
-6.159661812953285548e-02
-6.240680356490821423e-02
-6.235511412680719984e-02
-6.151453635490911065e-02
-6.004437215934172595e-02
-5.817762729123287374e-02
-5.619922722900623502e-02
-5.441696647979753221e-02
-5.312810561260596781e-02
-5.258526055061232829e-02
-5.296556766972567581e-02
-5.434698210796942014e-02
-5.669495732914020536e-02
-5.986170192118443756e-02
-6.359881590110837146e-02
-6.758252387086584323e-02
-7.144913362014645997e-02
-7.483695346434340867e-02
-7.742988815637129318e-02
-7.899745223768062097e-02
-7.942608420438398986e-02
-7.873743419737261329e-02
-7.709067167381848662e-02
-7.476767913593491965e-02
-7.214206122279658018e-02
-6.963496092512037883e-02
-6.766247781020452712e-02
-6.658078734944704313e-02
-6.663567534143083337e-02
-6.792301372456120701e-02
-7.036569400661160656e-02
-7.371078591447448314e-02
-7.754838064307736922e-02
-8.135097045177965003e-02
-8.452961775905898367e-02
-8.650090212487743235e-02
-8.675699997291563825e-02
-8.493048431121073827e-02
-8.084566688438403481e-02
-7.454956247975849659e-02
-6.631772752179491970e-02
-5.663308600028902490e-02
-4.613908390939589627e-02
-3.557172562368246527e-02
-2.567784379743787496e-02
-1.712897411906015924e-02
-1.044116177270038547e-02
-5.910752562652049104e-03
-3.574696250826053540e-03
-3.201246095110773029e-03
-4.313452865811601838e-03
-6.243916530013114523e-03
-8.215340561938353284e-03
-9.438015139370505707e-03
-9.212880379460289260e-03
-7.027635311342911480e-03
-2.633664432317656904e-03
3.906620220825528407e-03
1.220923633336704929e-02
2.159788594148634097e-02
3.117123282464733316e-02
3.990166049486097016e-02
4.675479219228700911e-02
5.081600678370531282e-02
5.140868950225632728e-02
4.818926620915012227e-02
4.120622625030513630e-02
3.091416133870231522e-02
1.813894418947410367e-02
3.995975952673298456e-03
-1.023072878276034582e-02
-2.323568665382842735e-02
-3.384855687576848737e-02
-4.118148667131834445e-02
-4.474867372963971246e-02
-4.454210425434184523e-02
-4.105196818511196860e-02
-3.522641084669486666e-02
-2.837238862146454835e-02
-2.200664469186556366e-02
-1.767234665009147568e-02
-1.674191499653597190e-02
-2.022934998852947072e-02
-2.863549565834020219e-02
-4.184701905963381791e-02
-5.910460876481905823e-02
-7.904850288413942105e-02
-9.984070973789305192e-02
-1.193541428314467273e-01
-1.354104048405105065e-01
-1.460411437880316243e-01
-1.497436407167947459e-01
-1.457001909591220667e-01
-1.339331908008958016e-01
-1.153735388002935375e-01
-9.182851863476954035e-02
-6.584591591787844478e-02
-4.048263643919131766e-02
-1.899729012416649654e-02
-4.495816726843763697e-03
4.338821838278178402e-04
-5.940940017733155679e-03
-2.422741012826037585e-02
-5.373656800291205099e-02
-9.243735357899132699e-02
-1.370475862065898554e-01
-1.832606914388971997e-01
-2.260926878570353182e-01
-2.603207440285297269e-01
-2.809738889226632286e-01
-2.838294211092503572e-01
-2.658660679375345892e-01
-2.256273924619863480e-01
-1.634562176932158883e-01
-8.157230906579582275e-02
1.601985251620138828e-02
1.237900910105641100e-01
2.350888881665750274e-01
3.426668664691230326e-01
4.392615859354837560e-01
5.181985737389299684e-01
5.739513783251760648e-01
6.026087163374285183e-01
6.022051766705303066e-01
5.728846504834006481e-01
5.168814124437702828e-01
4.383210181618030221e-01
3.428601817837120258e-01
2.371998608138794207e-01
1.285174088111346036e-01
2.387072284661630184e-02
-7.037085199903579669e-02
-1.490176215531578141e-01
-2.084298645439858211e-01
-2.467370750385641520e-01
-2.638910019446092936e-01
-2.615536725076839097e-01
-2.428373669989148109e-01
-2.119271875185096965e-01
-1.736271076800656732e-01
-1.328762560565317219e-01
-9.428320164193845776e-02
-6.172221279565681673e-02
-3.802738815880419426e-02
-2.480917217295341287e-02
-2.240435006898022080e-02
-2.995662123291999851e-02
-4.561174468186880021e-02
-6.680036422675851571e-02
-9.057400399734753804e-02
-1.139560470704836792e-01
-1.342699989958255902e-01
-1.494117720691152673e-01
-1.580404690846741456e-01
-1.596722328957731196e-01
-1.546729782065468239e-01
-1.441569755399849939e-01
-1.298081130696016605e-01
-1.136482081061421512e-01
-9.778125659358966049e-02
-8.414363590123305481e-02
-7.428804020565753230e-02
-6.922372443947914789e-02
-6.932816884592959972e-02
-7.433647997087797221e-02
-8.340575381295076141e-02
-9.524327072319516141e-02
-1.082806739944716795e-01
-1.208718883235087721e-01
-1.314908556740048695e-01
-1.389062775682134432e-01
-1.423142103756752652e-01
-1.414150417968591811e-01
-1.364283520164485120e-01
-1.280465854419781946e-01
-1.173354632465358066e-01
-1.055948725141151179e-01
-9.419795887581772220e-02
-8.442794423182831132e-02
-7.733167110556483925e-02
-7.360619332001176740e-02
-7.353028136493050537e-02
-7.694707064299401156e-02
-8.329794526441761104e-02
-9.170184282934817910e-02
-1.010691552069755417e-01
-1.102358272760511348e-01
-1.181014737454994107e-01
-1.237554783363870314e-01
-1.265770183947315108e-01
-1.262984729009516416e-01
-1.230262598145962644e-01
-1.172182416852938780e-01
-1.096218332746896756e-01
-1.011812725503014598e-01
-9.292570865743875197e-02
-8.585149592862235945e-02
-8.081222252260347738e-02
-7.842859369474061704e-02
-7.902755663242602702e-02
-8.261636314205676734e-02
-8.889307850253272414e-02
-9.729085842336480938e-02
-1.070496084036245965e-01
-1.173058135962192078e-01
-1.271896666256494279e-01
-1.359182650121951719e-01
-1.428745824193767555e-01
-1.476639772699308573e-01
-1.501429037415533130e-01
-1.504178680175113081e-01
-1.488161214395736509e-01
-1.458327087766774777e-01
-1.420609546603207596e-01
-1.381150260157442133e-01
-1.345537201116303316e-01
-1.318140878424315932e-01
-1.301620199749296269e-01
-1.296647126277469808e-01
-1.301872684855221729e-01
-1.314129032014682286e-01
-1.328836266543963751e-01
-1.340561371983123862e-01
-1.343662155449319717e-01
-1.332942583666062164e-01
-1.304247789505664779e-01
-1.254936592880011303e-01
-1.184185179957965850e-01
-1.093095564587403118e-01
-9.846042180870795413e-02
-8.632073639313060653e-02
-7.345376814287511713e-02
-6.048407764503923451e-02
-4.804076191905853194e-02
-3.670207560573457428e-02
-2.694677199674607240e-02
-1.911655404200935174e-02
-1.339269249873633987e-02
-9.788316285620369400e-03
-8.156281990065235993e-03
-8.211047497333697626e-03
-9.561746646958430712e-03
-1.175278805923429121e-02
-1.430783730630966546e-02
-1.677299928384685945e-02
-1.875536445277339176e-02
-1.995375476336945508e-02
-2.017941240745833517e-02
-1.936541538895421646e-02
-1.756467470795524191e-02
-1.493737316234167688e-02
-1.172956593405360785e-02
-8.245318486563336241e-03
-4.815171455512363106e-03
-1.763880563477966332e-03
6.197111909116829499e-04
2.108128885295872546e-03
2.554014046070149715e-03
1.900779294974693553e-03
1.845187363398378966e-04
-2.472707835820444743e-03
-5.877355589045212686e-03
-9.785115437339160158e-03
-1.392581761967774667e-02
-1.803010156036725237e-02
-2.185528251378588208e-02
-2.520791778071155773e-02
-2.796087435438630864e-02
-3.006321070845867707e-02
-3.154187073932371299e-02
-3.249499343725373995e-02
-3.307749659211108029e-02
-3.348041483058922935e-02
-3.390617591431739630e-02
-3.454250423228770461e-02
-3.553788032540276809e-02
-3.698141758325965839e-02
-3.888962888557717656e-02
-4.120187001636495955e-02
-4.378532081198095727e-02
-4.644928968435758920e-02
-4.896751690826825487e-02
-5.110613412656095367e-02
-5.265413744856398820e-02
-5.345275833870999360e-02
-5.342004803347533137e-02
-5.256736104519070529e-02
-5.100521605275541021e-02
-4.893715861202935224e-02
-4.664163364979545534e-02
-4.444334311679586091e-02
-4.267694242231204887e-02
-4.164704384924167863e-02
-4.158919383879083193e-02
-4.263666254348739970e-02
-4.479747435660987043e-02
-4.794513273856133156e-02
-5.182503597283667773e-02
-5.607679252386833790e-02
-6.027072388872493219e-02
-6.395501704087856731e-02
-6.670848556574442145e-02
-6.819292097119546148e-02
-6.819871165542484848e-02
-6.667785211983523475e-02
-6.375964544105465481e-02
-5.974621459330656248e-02
-5.508719672388245198e-02
-5.033544823865777201e-02
-4.608795089001557072e-02
-4.291808929919849885e-02
-4.130681145066852217e-02
-4.158069135099164843e-02
-4.386448801830458710e-02
-4.805444372077522647e-02
-5.381640839384153191e-02
-6.061013912802949016e-02
-6.773810708568170358e-02
-7.441420009241025979e-02
-7.984519295760642010e-02
-8.331608913718294152e-02
-8.426965786914104861e-02
-8.237083209032228237e-02
-7.754809460180218939e-02
-7.000642954292198017e-02
-6.020959321027005012e-02
-4.883300531099532549e-02
-3.669206575188282971e-02
-2.465373813350168336e-02
-1.354142769341355051e-02
-4.044227041555378994e-03
3.358655208843021756e-03
8.449039173299860775e-03
1.128998196028392978e-02
1.221213880523878796e-02
1.176741756451044063e-02
1.065508890428291597e-02
9.629012832562108826e-03
9.397171370161050419e-03
1.052591607269949200e-02
1.336105691425176073e-02
1.797612336108759742e-02
2.415499373240648923e-02
3.141196079799714325e-02
3.904766068275448976e-02
4.623469900604933874e-02
5.212283786836640481e-02
5.595077721287138733e-02
5.715026988639946431e-02
5.542876996836171993e-02
5.081903864602581311e-02
4.368791036410941270e-02
3.470134352198735173e-02
2.474837497088567748e-02
1.483200051672251343e-02
5.939634901949038086e-03
-1.090951034417474239e-03
-5.692929131382811966e-03
-7.662388939958848615e-03
-7.207282286699413960e-03
-4.944359194116222829e-03
-1.841226670235098818e-03
8.925335338660072160e-04
1.954557373114279052e-03
1.228153471508404860e-04
-5.567790355385792388e-03
-1.566756722400592522e-02
-3.019428016100576123e-02
-4.857335672099549750e-02
-6.964799366709344131e-02
-9.176338859364904788e-02
-1.129206083686506712e-01
-1.309868842639581310e-01
-1.439414242504843400e-01
-1.501301205664553606e-01
-1.484995869825373183e-01
-1.387812834569342735e-01
-1.216002200806412387e-01
-9.848963745846239792e-02
-7.180251833947959295e-02
-4.452185901051018690e-02
-1.998315122039937344e-02
-1.533225234797038188e-03
7.841756727665454008e-03
5.880853303070598254e-03
-8.634486291489353732e-03
-3.564793626637930563e-02
-7.371099615294782192e-02
-1.200009666611590309e-01
-1.704812087982924551e-01
-2.201962481306911079e-01
-2.636799510681661629e-01
-2.954423016259924428e-01
-3.104906455170661217e-01
-3.048357664197270389e-01
-2.759325328271899358e-01
-2.230093254867054620e-01
-1.472497170362740970e-01
-5.180310999412351958e-02
5.838300560869694872e-02
1.768994001380596592e-01
2.963537263924924114e-01
4.089507731059546791e-01
5.071231282515772376e-01
5.841553070812735005e-01
6.347441741989606756e-01
6.554438456094268117e-01
6.449537125807890403e-01
6.042227762615931530e-01
5.363606912799265825e-01
4.463640827207401851e-01
3.406840183248657228e-01
2.266752679366280943e-01
1.119787095693654255e-01
3.893905243588279344e-03
-9.120105373205097954e-02
-1.683307928838365664e-01
-2.242637437148716217e-01
-2.576860435918890135e-01
-2.691977795470475443e-01
-2.611383288636731081e-01
-2.372636892464457803e-01
-2.023121579276208337e-01
-1.615042228086858989e-01
-1.200272116644338360e-01
-8.255476227147440227e-02
-5.284572157433996276e-02
-3.345735502397505917e-02
-2.559487132229688877e-02
-2.910465990480634244e-02
-4.260385427580376527e-02
-6.372540216882072173e-02
-8.944708211607647896e-02
-1.164658707117455921e-01
-1.415763281781584337e-01
-1.620133520968560781e-01
-1.757254000895117352e-01
-1.815533326093547173e-01
-1.793012857301141127e-01
-1.696981637375638285e-01
-1.542601059468593494e-01
-1.350743895816583773e-01
-1.145326652309051896e-01
-9.504549637311508758e-02
-7.877059244229414614e-02
-6.738399918309170844e-02
-6.191733352653980282e-02
-6.267573116426249091e-02
-6.924153330885517155e-02
-8.055898863251605146e-02
-9.508646680789512029e-02
-1.109958004917878938e-01
-1.263940732323431404e-01
-1.395418183993106798e-01
-1.490432115126052726e-01
-1.539881181026840629e-01
-1.540322067425890784e-01
-1.494089535145684822e-01
-1.408753387675162894e-01
-1.296004579068944229e-01
-1.170123215093255564e-01
-1.046221809027644972e-01
-9.384740844995508036e-02
-8.585319502870961128e-02
-8.143029100702496581e-02
-8.092115141285115276e-02
-8.420078069284465949e-02
-9.071204837238232288e-02
-9.954902705439371002e-02
-1.095766859728062315e-01
-1.195716115915010785e-01
-1.283666764476302236e-01
-1.349828603224288437e-01
-1.387336276606608299e-01
-1.392910511668995766e-01
-1.367077432031772177e-01
-1.313940095662712304e-01
-1.240548376004496217e-01
-1.155957796989974390e-01
-1.070100099136341437e-01
-9.926049356894044162e-02
-9.317118650327736729e-02
-8.933954166585846013e-02
-8.807959921602728781e-02
-8.940097457576920426e-02
-9.302463315993593496e-02
-9.843198471322568699e-02
-1.049400480017500803e-01
-1.117926471107864028e-01
-1.182560931160061002e-01
-1.237077075837013235e-01
-1.277068189056791148e-01
-1.300403107024848681e-01
-1.307380977752733708e-01
-1.300576344453538424e-01
-1.284402739358305179e-01
-1.264455617165270995e-01
-1.246719958919956378e-01
-1.236741629836439066e-01
-1.238863325744720550e-01
-1.255615852365610519e-01
-1.287335084382085215e-01
-1.332046918071729535e-01
-1.385630333395032887e-01
-1.442236155869084380e-01
-1.494910013796128812e-01
-1.536345561391761760e-01
-1.559680671884633163e-01
-1.559246251787690385e-01
-1.531184641716093753e-01
-1.473871106343595250e-01
-1.388095530560379542e-01
-1.276989220879513887e-01
-1.145710397490683208e-01
-1.000928274565895809e-01
-8.501666609384021800e-02
-7.010815736249993713e-02
-5.607521457186914748e-02
-4.350598898965935685e-02
-3.282189220653964484e-02
-2.425007492198142517e-02
-1.781740549793697087e-02
-1.336553394476894772e-02
-1.058431195799522384e-02
-9.058924032513395938e-03
-8.324771178878627095e-03
-7.923564497894297967e-03
-7.454269798706766870e-03
-6.613446676653127014e-03
-5.221015460245829153e-03
-3.229369084053450127e-03
-7.157918373596670837e-04
2.139889686054839094e-03
5.088843253366078130e-03
7.853210015082065162e-03
1.016722628605677345e-02
1.181428818818057273e-02
1.265548101913033067e-02
1.264633136934854851e-02
1.184012913573266428e-02
1.037790593980303031e-02
8.466833116760292405e-03
6.350215589921361960e-03
4.273241531104113484e-03
2.449092142333864682e-03
1.029877812713148955e-03
8.617315583173338462e-05
-4.022313868779348717e-04
-5.432111906638190839e-04
-5.172683138336082792e-04
-5.525443326588464063e-04
-8.931273005416568442e-04
-1.764752562921307081e-03
-3.342338098565223944e-03
-5.723579313180478419e-03
-8.912082934037153167e-03
-1.281233632524929333e-02
-1.723733229695435104e-02
-2.192808191884069655e-02
-2.658274412032273284e-02
-3.089186671797076664e-02
-3.457542292133012479e-02
-3.741704444685113595e-02
-3.929113623691630336e-02
-4.017937986810183465e-02
-4.017439770897435203e-02
-3.946990741459553698e-02
-3.833835890073438585e-02
-3.709861042298794737e-02
-3.607747243918103808e-02
-3.556976790718147791e-02
-3.580181618141020650e-02
-3.690290486427753869e-02
-3.888840138067978236e-02
-4.165677652497848382e-02
-4.500112672793957214e-02
-4.863399375596401397e-02
-5.222260720650896693e-02
-5.543032657367059912e-02
-5.795920869975282330e-02
-5.958838864900292687e-02
-6.020338027798958352e-02
-5.981243929761128481e-02
-5.854767201636027624e-02
-5.665043731106960551e-02
-5.444255357250249450e-02
-5.228664450559696031e-02
-5.054040691492765747e-02
-4.951046963661452638e-02
-4.941171044775783533e-02
-5.033736287800006509e-02
-5.224402512574899404e-02
-5.495391058851260141e-02
-5.817456020697023972e-02
-6.153402656516381020e-02
-6.462751077048929649e-02
-6.706984776927264746e-02
-6.854730444377098164e-02
-6.886201697846240644e-02
-6.796309235197538212e-02
-6.595987332786926172e-02
-6.311495978374744020e-02
-5.981704955404045648e-02
-5.653621407105491325e-02
-5.376654089317136481e-02
-5.196285911541077135e-02
-5.147927293704150642e-02
-5.251730852807023897e-02
-5.509058726733225692e-02
-5.901114938946096927e-02
-6.390005683422464444e-02
-6.922198710904255148e-02
-7.434053943964993860e-02
-7.858827933485257322e-02
-8.134349402632294612e-02
-8.210449839240804848e-02
-8.055229306251276977e-02
-7.659347899643675905e-02
-7.037748061542432876e-02
-6.228509446277633033e-02
-5.288882385525102425e-02
-4.288897249663028988e-02
-3.303261676584746259e-02
-2.402495340470283194e-02
-1.644380185740789216e-02
-1.066802837487591978e-02
-6.829304473665356520e-03
-4.794033449466075965e-03
-4.178749312716805407e-03
-4.398215607340763209e-03
-4.741313275912264862e-03
-4.466120237681832188e-03
-2.902827497567014685e-03
4.483124180647503256e-04
5.836714660932901949e-03
1.320989158879774285e-02
2.219846783018388295e-02
3.214140906116988439e-02
4.215019831076632223e-02
5.120574239036820158e-02
5.827739658481081303e-02
6.245022678416463358e-02
6.304494024591776602e-02
5.971508834916197661e-02
5.250823908915430716e-02
4.188166172843641594e-02
2.866826551403288750e-02
1.399451044720665706e-02
-8.419407504414482468e-04
-1.452167460081668984e-02
-2.586290134285530729e-02
-3.397146243558112760e-02
-3.836234305036492070e-02
-3.903608299650311586e-02
-3.649816938857173426e-02
-3.171588861199672871e-02
-2.601452090989472138e-02
-2.092233051513336939e-02
-1.798062954833078500e-02
-1.854041175844694384e-02
-2.356995093874542438e-02
-3.349786961732154067e-02
-4.811334617631007199e-02
-6.653952658756319416e-02
-8.728835979329430117e-02
-1.083957935687209495e-01
-1.276265704871785700e-01
-1.427288683403808156e-01
-1.517118275984119247e-01
-1.531145355858388457e-01
-1.462339574827150601e-01
-1.312819247690858726e-01
-1.094475060574764125e-01
-8.285037438469575188e-02
-5.438225222727186003e-02
-2.744597821223313666e-02
-5.613847032169639283e-03
7.762745158354793402e-03
9.952901945969859845e-03
-7.878597037594481985e-04
-2.492730531421595910e-02
-6.147810134808538024e-02
-1.079578658049268058e-01
-1.605010371082661036e-01
-2.141207728419785017e-01
-2.631034009630404680e-01
-3.015033884259498698e-01
-3.236949474800780990e-01
-3.249286098713295989e-01
-3.018383187942021428e-01
-2.528472681895770346e-01
-1.784287502321768859e-01
-8.119097791701844480e-02
3.422894805128015583e-02
1.614586311788402673e-01
2.928499830195905318e-01
4.200667695687941849e-01
5.347489382406295233e-01
6.291942771979041060e-01
6.969953787556874003e-01
7.335733312418301066e-01
7.365587612502723092e-01
7.059849144503193008e-01
6.442750207662012452e-01
5.560255004330563189e-01
4.476057124984772484e-01
3.266120235503378599e-01
2.012272936958943992e-01
7.954513808573576705e-02
-3.107925471189710784e-02
-1.245935624473148984e-01
-1.966790271919647282e-01
-2.450121908480669131e-01
-2.693393726622177464e-01
-2.713639172462667948e-01
-2.544641040745879157e-01
-2.232752293574947478e-01
-1.831812348361281650e-01
-1.397682660348140427e-01
-9.829412120733911629e-02
-6.322370016320806585e-02
-3.787183737343049333e-02
-2.418235421304965396e-02
-2.265720445724721949e-02
-3.243383805808430775e-02
-5.149402409662984237e-02
-7.697486561962740836e-02
-1.055438153256827299e-01
-1.337949526010778489e-01
-1.586239082035718895e-01
-1.775434140410769579e-01
-1.889098370593276788e-01
-1.920421705501024201e-01
-1.872274961054085640e-01
-1.756194833478260386e-01
-1.590477073472388592e-01
-1.397642801760510534e-01
-1.201596777764140089e-01
-1.024812605530095871e-01
-8.858583132549043004e-02
-7.975205992201205019e-02
-7.657049617270968167e-02
-7.891921395320121435e-02
-8.602303204204862774e-02
-9.658489262545043308e-02
-1.089703661690563929e-01
-1.214211680278593913e-01
-1.322714793706218084e-01
-1.401418618130925164e-01
-1.440893887073081137e-01
-1.436987199199915299e-01
-1.391064197502991651e-01
-1.309589249554455048e-01
-1.203122548649343398e-01
-1.084879516664801202e-01
-9.690416368675122682e-02
-8.690281296049529036e-02
-7.959329115164663626e-02
-7.573027206074250950e-02
-7.563845055750478830e-02
-7.919095726582243977e-02
-8.584161772809346946e-02
-9.470491660253126109e-02
-1.046722170848749800e-01
-1.145490517274952158e-01
-1.231965133648437460e-01
-1.296600574104780079e-01
-1.332712564700435642e-01
-1.337118763829980295e-01
-1.310345479675063540e-01
-1.256396631185678070e-01
-1.182132761120456149e-01
-1.096351390140286042e-01
-1.008690661578078018e-01
-9.284930092103639565e-02
-8.637634673404653851e-02
-8.203392682972529548e-02
-8.013564312891816033e-02
-8.070594565992364466e-02
-8.349571568986219328e-02
-8.802864237521891566e-02
-9.367112207361191767e-02
-9.971601368447161051e-02
-1.054694794632784899e-01
-1.103303972496935820e-01
-1.138533448947891408e-01
-1.157886809664915029e-01
-1.160964148057244127e-01
-1.149339493970110843e-01
-1.126209614946526577e-01
-1.095872720666456468e-01
-1.063112663563807736e-01
-1.032570822839483371e-01
-1.008183744293091877e-01
-9.927509177470392188e-02
-9.876760996915552593e-02
-9.929004455624509951e-02
-1.007019889570890392e-01
-1.027556109574504495e-01
-1.051332907426609509e-01
-1.074899913682013097e-01
-1.094944073271711116e-01
-1.108636091354846531e-01
-1.113872529768399205e-01
-1.109392301889490784e-01
-1.094766146031316834e-01
-1.070276369925833443e-01
-1.036719129853510696e-01
-9.951707458346008284e-02
-9.467619523437401097e-02
-8.924994544958157749e-02
-8.331636215028782877e-02
-7.692963696578779265e-02
-7.012766244101105440e-02
-6.294648060619510710e-02
-5.543850173302977691e-02
-4.769060001524888515e-02
-3.983806837836922909e-02
-3.207095252194590296e-02
-2.463041266295087212e-02
-1.779431935877699017e-02
-1.185304964147778500e-02
-7.078149865819594565e-03
-3.687912166200703161e-03
-1.814752443060624635e-03
-1.479431076221689352e-03
-2.576569351264804911e-03
-4.874635725756491789e-03
-8.031758264592138083e-03
-1.162659531838129180e-02
-1.520135258402968009e-02
-1.831216947331503614e-02
-2.058078572512673371e-02
-2.174084707090527882e-02
-2.167253005462002960e-02
-2.042035745777749309e-02
-1.819101779969254859e-02
-1.533046772890428629e-02
-1.228227886792682133e-02
-9.531742504903961688e-03
-7.542322127404576214e-03
-6.692348987058965686e-03
-7.220184338172684450e-03
-9.185338124078205532e-03
-1.245128968599873778e-02
-1.669318549147157105e-02
-2.143049455640525652e-02
-2.608146404716512809e-02
-3.003325118449617567e-02
-3.271930898760656847e-02
-3.369429798146701682e-02
-3.269669364557063751e-02
-2.969042296238648404e-02
-2.487919564869615213e-02
-1.869044454433588243e-02
-1.172957645877893001e-02
-4.709095737881004509e-03
1.639392615513681623e-03
6.659723544821983740e-03
9.860349173409402312e-03
1.098637632310501579e-02
1.006432613046356200e-02
7.412479298870009933e-03
3.613714769920580924e-03
-5.476301312536206159e-04
-4.178710978587610661e-03
-6.390697218887107962e-03
-6.417646608239739765e-03
-3.727063403335261534e-03
1.892214598222924024e-03
1.027703401954112132e-02
2.088034079909990154e-02
3.280851599642969213e-02
4.490352416432600441e-02
5.586213779076216329e-02
6.437957142836982227e-02
6.930126499831315567e-02
6.976479643522931484e-02
6.531427373605971920e-02
5.597210143908369628e-02
4.225751773541414069e-02
2.514728958221022076e-02
5.980768049311952113e-03
-1.368165125558443163e-02
-3.223157588267412665e-02
-4.819761338538589707e-02
-6.042046333419506809e-02
-6.819650334306603945e-02
-7.137114772589871203e-02
-7.036852753137404215e-02
-6.615117052168889566e-02
-6.011157073583109356e-02
-5.390589047993585986e-02
-4.924753741215115443e-02
-4.768406984876013416e-02
-5.038404330810357379e-02
-5.796052815670473674e-02
-7.035495193844981676e-02
-8.679886860852799313e-02
-1.058628101289572077e-01
-1.255914192172441490e-01
-1.437136952175668558e-01
-1.579076028350925309e-01
-1.660906514884723795e-01
-1.667033300040099419e-01
-1.589511611249851131e-01
-1.429739220000718902e-01
-1.199171240550779838e-01
-9.189058752615067438e-02
-6.181092490702641551e-02
-3.313771315693458952e-02
-9.525675777464309019e-03
5.574108228605953105e-03
9.323370327905628960e-03
-1.278973866660261278e-04
-2.334264512706087438e-02
-5.941169190376532211e-02
-1.059093125313194383e-01
-1.590029480988869315e-01
-2.137150088120937652e-01
-2.643188049728982247e-01
-3.048359465837575666e-01
-3.295906890270043910e-01
-3.337690095599282203e-01
-3.139276078390315639e-01
-2.684009497486870011e-01
-1.975627623443273750e-01
-1.039113181527980406e-01
8.035800505951066694e-03
1.320335921284405967e-01
2.605661357402997425e-01
3.854293115275814752e-01
4.983885307149187871e-01
5.918522963683902072e-01
6.595001604118518879e-01
6.968073714246999506e-01
7.014178892730189574e-01
6.733315633145851020e-01
6.148887352555117980e-01
5.305545964614071242e-01
4.265244050485931804e-01
3.101872862162903255e-01
1.894991651142433897e-01
7.232317458168410762e-02
-3.420207870154751140e-02
-1.242098458283723839e-01
-1.935208730797030319e-01
-2.398937059821964757e-01
-2.630926321910488364e-01
-2.647740884694089192e-01
-2.482096400570430461e-01
-2.178786389963450476e-01
-1.789749379375868421e-01
-1.368785492030335782e-01
-9.664438120043225555e-02
-6.255619649346101652e-02
-3.778529453344410538e-02
-2.418116815976958586e-02
-2.220689775930962534e-02
-3.101689793664228270e-02
-4.866040383760809884e-02
-7.238220983867785230e-02
-9.898378789900819097e-02
-1.252037425067506482e-01
-1.480768593574689762e-01
-1.652355466315706400e-01
-1.751255838840527213e-01
-1.771187598649374140e-01
-1.715169460699362269e-01
-1.594540771695723835e-01
-1.427131155969624809e-01
-1.234832849603519078e-01
-1.040878933570700271e-01
-8.671453889900720968e-02
-7.317740979906196819e-02
-6.473616102447007914e-02
-6.198819971471638407e-02
-6.484210426985569098e-02
-7.257041926252860709e-02
-8.393128110404030062e-02
-9.734118396224475389e-02
-1.110764093941045277e-01
-1.234786365443803352e-01
-1.331411118763530521e-01
-1.390552477127901532e-01
-1.407031138887054333e-01
-1.380882468387940876e-01
-1.317046661858668199e-01
-1.224510839816917857e-01
-1.115032224227136132e-01
-1.001612988727822173e-01
-8.969170405717519223e-02
-8.118156911040011470e-02
-7.542244006994203165e-02
-7.283504506006518997e-02
-7.344172574774622542e-02
-7.688719666759205595e-02
-8.250260594543572246e-02
-8.940305171925780336e-02
-9.660528226222490911e-02
-1.031506098088843942e-01
-1.082182142660752522e-01
-1.112159004270513313e-01
-1.118386950136387170e-01
-1.100899689332470316e-01
-1.062644913965681975e-01
-1.008973870693213454e-01
-9.468684113397496382e-02
-8.840115127154596353e-02
-8.278208473753193020e-02
-7.845636349228228557e-02
-7.586555589798107957e-02
-7.522194788400957122e-02
-7.649447595822786439e-02
-7.942498229265687604e-02
-8.357137272597846278e-02
-8.837115673097488411e-02
-9.321667260732484361e-02
-9.753227350704422871e-02
-1.008439433320241080e-01
-1.028331513082937354e-01
-1.033690287203743591e-01
-1.025158460100843161e-01
-1.005159072697846823e-01
-9.775097163721456484e-02
-9.468780082245886742e-02
-9.181513872036325963e-02
-8.958017752488509067e-02
-8.833230455840228312e-02
-8.828072762521564643e-02
-8.947062751384270152e-02
-9.178005245826310887e-02
-9.493716510964853028e-02
-9.855500195302047128e-02
-1.021788987051028136e-01
-1.053403993371557629e-01
-1.076109351868538566e-01
-1.086488662486423534e-01
-1.082345473040569050e-01
-1.062897549728119007e-01
-1.028798597495503842e-01
-9.819928421597552692e-02
-9.254278700245725797e-02
-8.626671480984393625e-02
-7.974539213393708192e-02
-7.332816883449209955e-02
-6.730230435782025289e-02
-6.186590611875913970e-02
-5.711370079400420602e-02
-5.303669943205611276e-02
-4.953504274104260363e-02
-4.644170346020076029e-02
-4.355347006502015977e-02
-4.066488119469736928e-02
-3.760059624941107514e-02
-3.424207451080216874e-02
-3.054532318756110129e-02
-2.654773321723599699e-02
-2.236348066567986695e-02
-1.816844210038584886e-02
-1.417687100642474676e-02
-1.061305481462844306e-02
-7.681708860498779635e-03
-5.540914824762620261e-03
-4.280986806257773732e-03
-3.911818704450824129e-03
-4.360148104261841670e-03
-5.476912719451328820e-03
-7.053635623676276362e-03
-8.845705996969436408e-03
-1.059964820399378338e-02
-1.208107649784651016e-02
-1.310005013942089347e-02
-1.353095554741618432e-02
-1.332478290709010645e-02
-1.251263119732974431e-02
-1.120034134294206965e-02
-9.555189596909763328e-03
-7.786448702840485965e-03
-6.122245282741905527e-03
-4.785445585234636943e-03
-3.971268072797113843e-03
-3.828971703124977102e-03
-4.449363338077628842e-03
-5.859093747145081160e-03
-8.021873204632551033e-03
-1.084594055889944245e-02
-1.419645849847155604e-02
-1.791105377337238319e-02
-2.181651632412315994e-02
-2.574472290786296302e-02
-2.954613249191038668e-02
-3.309965927527219742e-02
-3.631829227877437366e-02
-3.915041652827954549e-02
-4.157732191496217589e-02
-4.360779657012080895e-02
-4.527094766091081801e-02
-4.660845611455433773e-02
-4.766736075045607118e-02
-4.849421448393384515e-02
-4.913111082730249601e-02
-4.961370304912652435e-02
-4.997099160897625764e-02
-5.022638983699589249e-02
-5.039942983138306215e-02
-5.050745517102488147e-02
-5.056675850564631980e-02
-5.059283227476169681e-02
-5.059966804096351772e-02
-5.059831227643674795e-02
-5.059511297572146654e-02
-5.059022809488448319e-02
-5.057698599742979639e-02
-5.054258101763967059e-02
-5.047036652372532961e-02
-5.034370720030124230e-02
-5.015101989119145204e-02
-4.989132401155296770e-02
-4.957939541561322966e-02
-4.924951750311066384e-02
-4.895688086329189059e-02
-4.877590421302078344e-02
-4.879511771836392287e-02
-4.910872251741994765e-02
-4.980545683971141641e-02
-5.095588674761970110e-02
-5.259962405953944042e-02
-5.473419012077941626e-02
-5.730724467985309767e-02
-6.021366422676278918e-02
-6.329849450173075098e-02
-6.636615957975583457e-02
-6.919555574522084918e-02
-7.155988196609620877e-02
-7.324936059104215913e-02
-7.409447740237615210e-02
-7.398709987234768082e-02
-7.289686848096502136e-02
-7.088061438796378066e-02
-6.808321387088928089e-02
-6.472918275177991232e-02
-6.110534544956338493e-02
-5.753596556038171467e-02
-5.435266950700129440e-02
-5.186221131700537168e-02
-5.031551774519659598e-02
-4.988145538198503898e-02
-5.062835894861762026e-02
-5.251558392172252926e-02
-5.539627674217500325e-02
-5.903130939009627182e-02
-6.311304710596203627e-02
-6.729646065693736801e-02
-7.123420132956875817e-02
-7.461174338737863732e-02
-7.717863700547050732e-02
-7.877232410318985023e-02
-7.933181150748948307e-02
-7.889967760201775648e-02
-7.761227297174946860e-02
-7.567939682677414515e-02
-7.335601396508267813e-02
-7.090956074770081441e-02
-6.858694361327430378e-02
-6.658538316836572213e-02
-6.503078293549599542e-02
-6.396635541493793375e-02
-6.335292747486565013e-02
-6.308083264506691989e-02
-6.299176768338211885e-02
-6.290764170844162506e-02
-6.266245623055119451e-02
-6.213276127486478534e-02
-6.126231443259811532e-02
-6.007723231616055037e-02
-5.868909951485831722e-02
-5.728505251361884487e-02
-5.610559519024732600e-02
-5.541260891138930639e-02
-5.545146968292588574e-02
-5.641217846733698887e-02
-5.839480134039083670e-02
-6.138422776752436305e-02
-6.523829637003875082e-02
-6.969180320804478634e-02
-7.437697067182529043e-02
-7.885884607197181373e-02
-8.268208109431497699e-02
-8.542387857305892840e-02
-8.674680901085357609e-02
-8.644486123883965423e-02
-8.447657538328531834e-02
-8.098038878289277875e-02
-7.626928094821924797e-02
-7.080421712127457634e-02
-6.514847970528500620e-02
-5.990742711558325745e-02
-5.566021966252170106e-02
-5.289133420387686496e-02
-5.193006398565399445e-02
-5.290558428261896845e-02
-5.572359320058502263e-02
-6.006816686523302334e-02
-6.542955965937730101e-02
-7.115557116850829145e-02
-7.652116707264491891e-02
-8.080864969891481120e-02
-8.338913907647599322e-02
-8.379566763312787381e-02
-8.177890561059493468e-02
-7.733837348611566354e-02
-7.072477432357293647e-02
-6.241248333009891125e-02
-5.304486387489303068e-02
-4.335849830254355497e-02
-3.409519681875154001e-02
-2.591241211885043569e-02
-1.930318799505333430e-02
-1.453590009318190580e-02
-1.162186787314637738e-02
-1.031565357699136716e-02
-1.014888579419323880e-02
-1.049422343782031343e-02
-1.065213013467152144e-02
-9.949963819403922355e-03
-7.840928230395205131e-03
-3.989974031306422163e-03
1.665105358137122446e-03
8.886444778086479215e-03
1.714785301114527677e-02
2.568586994111011698e-02
3.358544824456689837e-02
3.989091513701909647e-02
4.372917883816905549e-02
4.442992591216751025e-02
4.162715507604070053e-02
3.532794429454155088e-02
2.593775094624313146e-02
1.423646362436123934e-02
1.305320816959468395e-03
-1.158899712931862891e-02
-2.314106359202051238e-02
-3.216760663174796087e-02
-3.776330130809432695e-02
-3.943164705357708050e-02
-3.717304907545067316e-02
-3.151645478929623878e-02
-2.348704126939324052e-02
-1.450986040841601397e-02
-6.257193430351875099e-03
-4.547193671787983470e-04
1.332449578458394339e-03
-2.090939147045259208e-03
-1.137144981575471600e-02
-2.648234045466569403e-02
-4.667190095846480286e-02
-7.049596687309707399e-02
-9.593652886401175806e-02
-1.205982795044370504e-01
-1.419652201118873636e-01
-1.576912414400739870e-01
-1.658929286452940077e-01
-1.654105139101850197e-01
-1.560043557525837288e-01
-1.384595980348610478e-01
-1.145803553550491516e-01
-8.706607977000338505e-02
-5.927554820035231542e-02
-3.489681350080322403e-02
-1.755305332470383228e-02
-1.038317936805767915e-02
-1.564122325995994517e-02
-3.435914832233521315e-02
-6.611357135260881313e-02
-1.089281487134975829e-01
-1.593308278598256078e-01
-2.125699711154026006e-01
-2.629770352614140827e-01
-3.044477249413292674e-01
-3.310000151439459470e-01
-3.373576596871294409e-01
-3.195029209482639354e-01
-2.751429405214759205e-01
-2.040405243096253263e-01
-1.081716511561425648e-01
8.312309567311921762e-03
1.393213636695395108e-01
2.772471671112638480e-01
4.135332504576971213e-01
5.393464747123619674e-01
6.462903459879475454e-01
7.270958035023675770e-01
7.762262976420492011e-01
7.903413393561112832e-01
7.685755473529892745e-01
7.126073029629760303e-01
6.265107644586964675e-01
5.164052517159063438e-01
3.899348798154613771e-01
2.556269335777991425e-01
1.221883038967169210e-01
-2.195687133534360638e-03
-1.104970050401850590e-01
-1.973594292106626291e-01
-2.594487456009543780e-01
-2.956119954304919362e-01
-3.068379248282315230e-01
-2.960298521484361345e-01
-2.676196505042494622e-01
-2.270657221333084452e-01
-1.802873825873076430e-01
-1.330921406425349118e-01
-9.065070040303012389e-02
-5.706746459454400955e-02
-3.508276693772360844e-02
-2.592833040898983796e-02
-2.934115149743578982e-02
-4.372487373183213399e-02
-6.643339264663622457e-02
-9.414033882236425010e-02
-1.232512411712557571e-01
-1.503131203437795271e-01
-1.723790191623082724e-01
-1.872920511165001856e-01
-1.938640058475400163e-01
-1.919361345555705978e-01
-1.823230127974999615e-01
-1.666528898592456731e-01
-1.471283714314481073e-01
-1.262386114438708018e-01
-1.064577561798271677e-01
-8.996397355040501587e-02
-7.840924075135162485e-02
-7.276278473761232934e-02
-7.324162010099050102e-02
-7.933115432292901781e-02
-8.988854330844139873e-02
-1.033125194479740383e-01
-1.177567221095280059e-01
-1.313597842538141991e-01
-1.424648613223519489e-01
-1.498038483425419010e-01
-1.526267871027279788e-01
-1.507642002224728051e-01
-1.446183903383725100e-01
-1.350881173241989530e-01
-1.234385527213025940e-01
-1.111341909277382550e-01
-9.965588119799273503e-02
-9.032403318870128872e-02
-8.414835018142947931e-02
-8.172046597574010585e-02
-8.316015978498342287e-02
-8.811913152622996570e-02
-9.583945330352947045e-02
-1.052575760029736962e-01
-1.151398589962741581e-01
-1.242325206353986355e-01
-1.314079580967370542e-01
-1.357905776651149032e-01
-1.368483829887614245e-01
-1.344411467804826621e-01
-1.288214447177672417e-01
-1.205904856879441434e-01
-1.106158603221928938e-01
-9.992246197363448268e-02
-8.957047177733047649e-02
-8.053519533375179396e-02
-7.360266118107214317e-02
-6.929241772926542087e-02
-6.781525510816835411e-02
-6.906911921467499826e-02
-7.267183518175771018e-02
-7.802497318487691680e-02
-8.439976145785381412e-02
-9.103374924019298764e-02
-9.722615450749187704e-02
-1.024205293505194569e-01
-1.062653938648648461e-01
-1.086465337877450393e-01
-1.096883220413266691e-01
-1.097252483587196070e-01
-1.092483624960557953e-01
-1.088341488673115892e-01
-1.090651472710779807e-01
-1.104522452904650037e-01
-1.133679679900011505e-01
-1.179984024732874254e-01
-1.243188647185042850e-01
-1.320953812145945205e-01
-1.409109006107244211e-01
-1.502122530963230229e-01
-1.593715719212424053e-01
-1.677544320280033308e-01
-1.747864832670958934e-01
-1.800108753454968402e-01
-1.831301843040523125e-01
-1.840286476997462783e-01
-1.827730199291717206e-01
-1.795929525141470584e-01
-1.748441747298304927e-01
-1.689596250932782762e-01
-1.623948629869886584e-01
-1.555744635879603988e-01
-1.488456609188570645e-01
-1.424443431156346418e-01
-1.364767932481172619e-01
-1.309185380695045420e-01
-1.256295727390196737e-01
-1.203833242472276271e-01
-1.149052170728003947e-01
-1.089157688685072622e-01
-1.021728548749455262e-01
-9.450813709510441640e-02
-8.585358276759741392e-02
-7.625535456356834219e-02
-6.587395937276187274e-02
-5.497118902676730035e-02
-4.388587897165172752e-02
-3.300168252649376271e-02
-2.271079071331082513e-02
-1.337776198318751074e-02
-5.307366934276540674e-03
1.280336305920219469e-03
6.265489803164496670e-03
9.633468448482677277e-03
1.146965441039383450e-02
1.194524757057803185e-02
1.129626715055485030e-02
9.798443512943868366e-03
7.740890223513562096e-03
5.401293917401826100e-03
3.024915842111857659e-03
8.090440968376923529e-04
-1.106229178379395045e-03
-2.640804185616121933e-03
-3.771529180713414312e-03
-4.524431364627702797e-03
-4.963668570093769140e-03
-5.178764220773466112e-03
-5.271610076035394485e-03
-5.344487917048374066e-03
-5.490029746734732645e-03
-5.783666259361901554e-03
-6.278762029221538615e-03
-7.004346760505117050e-03
-7.965151511961266959e-03
-9.143552428855616920e-03
-1.050300130662826237e-02
-1.199255672442042439e-02
-1.355218856444148287e-02
-1.511858172358460269e-02
-1.663118548681844291e-02
-1.803823311999814064e-02
-1.930239295449280926e-02
-2.040562662769770941e-02
-2.135275042540124915e-02
-2.217315646894284925e-02
-2.292018447260782063e-02
-2.366776466657184372e-02
-2.450418629146580360e-02
-2.552317168273744719e-02
-2.681282047952211062e-02
-2.844338318596328560e-02
-3.045516542320502243e-02
-3.284809125602424634e-02
-3.557450916460993401e-02
-3.853666971264288477e-02
-4.158992764779666229e-02
-4.455214275461438778e-02
-4.721902482664676326e-02
-4.938436990741211507e-02
-5.086336687343102902e-02
-5.151652532341035456e-02
-5.127138773670347760e-02
-5.013912208203515075e-02
-4.822338968559778533e-02
-4.571954739870762868e-02
-4.290322451740150728e-02
-4.010851822397201033e-02
-3.769734263758792170e-02
-3.602268930411138548e-02
-3.538954919843309566e-02
-3.601786214189856006e-02
-3.801199000540392281e-02
-4.134079928667989956e-02
-4.583149481667598418e-02
-5.117894746997712907e-02
-5.697054360460501732e-02
-6.272474293463822792e-02
-6.793978267248482195e-02
-7.214753026228669375e-02
-7.496656136611622168e-02
-7.614826957895803883e-02
-7.561027198906120073e-02
-7.345254832781443477e-02
-6.995353824698641310e-02
-6.554563839147083126e-02
-6.077194259976237412e-02
-5.622837216551380274e-02
-5.249726530063675983e-02
-5.007978234680593443e-02
-4.933495102933459220e-02
-5.043272815285312211e-02
-5.332710320968745560e-02
-5.775313975897994334e-02
-6.324916545277400881e-02
-6.920238478974707896e-02
-7.491334426035646532e-02
-7.967227803219323334e-02
-8.283871132413997418e-02
-8.391502870150453763e-02
-8.260514401600588252e-02
-7.885092484343984853e-02
-7.284148310664162462e-02
-6.499357775099832979e-02
-5.590482501369224699e-02
-4.628476579733721563e-02
-3.687168263664927087e-02
-2.834502329887996289e-02
-2.124410212982801027e-02
-1.590327390656852760e-02
-1.241202246297721384e-02
-1.060555011475523488e-02
-1.008781067746024156e-02
-1.028492205294612508e-02
-1.052301076258355117e-02
-1.012126743046811751e-02
-8.488759734373173618e-03
-5.212674676237606317e-03
-1.263050558841481708e-04
6.652767499909590689e-03
1.472041798602939482e-02
2.342144766868698574e-02
3.191984412117072206e-02
3.929634317313417113e-02
4.466200326632047829e-02
4.727396228527211419e-02
4.663863917944890275e-02
4.258855163623951473e-02
3.532161371311749037e-02
2.539599628057987585e-02
1.367892169622047724e-02
1.253511765936476908e-03
-1.070667933468850454e-02
-2.108123511280763848e-02
-2.894730354166428349e-02
-3.370659752508314844e-02
-3.517787509506183075e-02
-3.364118427351379947e-02
-2.982542162016249554e-02
-2.483735266796192193e-02
-2.003743614288599345e-02
-1.687473423937184067e-02
-1.669901763808913364e-02
-2.057211852605977595e-02
-2.910206792098539788e-02
-4.232226144686762614e-02
-5.963383433857123717e-02
-7.982292524123904554e-02
-1.011562111356385518e-01
-1.215488878071126488e-01
-1.387901912743340349e-01
-1.508036811005694922e-01
-1.559138261179751350e-01
-1.530877315276088502e-01
-1.421216004633974461e-01
-1.237458364605945327e-01
-9.963026458064570823e-02
-7.228109068299280737e-02
-4.483291700672567548e-02
-2.075115094338141411e-02
-3.471151034656198495e-03
3.990827778339011908e-03
-5.855195761147841908e-04
-1.830154303804605240e-02
-4.890887351751675716e-02
-9.070175781947048543e-02
-1.405521174049707556e-01
-1.940930817069709546e-01
-2.460416027090155111e-01
-2.906359041038668600e-01
-3.221505378989253932e-01
-3.354421509085837583e-01
-3.264738328133882095e-01
-2.927658209823350011e-01
-2.337255486587952180e-01
-1.508201625058078199e-01
-4.756879813342396179e-02
7.065125716531302225e-02
1.969725201350490951e-01
3.235502934600221758e-01
4.421769963132426984e-01
5.449436084991462481e-01
6.248885853717599526e-01
6.765749526737742103e-01
6.965424274697896712e-01
6.835927706003180893e-01
6.388820565371571281e-01
5.658116250798967961e-01
4.697283623385380968e-01
3.574627702523935358e-01
2.367482591688839788e-01
1.155757642404596219e-01
1.543114705572266139e-03
-9.874190421250335359e-02
-1.801520512883907077e-01
-2.393831518373593092e-01
-2.751221313640588306e-01
-2.880313324388706908e-01
-2.805576584519551275e-01
-2.565915582306185216e-01
-2.210144125183523822e-01
-1.791822185458123440e-01
-1.363977610653043793e-01
-9.742241662384779066e-02
-6.607262536409273801e-02
-4.493566250700586212e-02
-3.522585229711319710e-02
-3.678727879733075662e-02
-4.823397046023919499e-02
-6.720502657922043654e-02
-9.070155713225973304e-02
-1.154656150849441149e-01
-1.383590583874182156e-01
-1.567025431707329830e-01
-1.685411963429140902e-01
-1.728130992122581533e-01
-1.694083772679621791e-01
-1.591190954366861754e-01
-1.434919385693755600e-01
-1.246055689658172594e-01
-1.048016039207617656e-01
-8.640170635187072179e-02
-7.144309775306081911e-02
-6.146107236295964005e-02
-5.734038332200854654e-02
-5.924856089067589981e-02
-6.665438044221992653e-02
-7.842496565225504090e-02
-9.298647203523101312e-02
-1.085268515198476447e-01
-1.232154810180975252e-01
-1.354137459012696720e-01
-1.438529475078576814e-01
-1.477607646464757785e-01
-1.469242767246691783e-01
-1.416853968865659785e-01
-1.328725248902491995e-01
-1.216793968652750829e-01
-1.095076936807765217e-01
-9.779339723618585278e-02
-8.783785166339490302e-02
-8.066298548081214659e-02
-7.690645806022225472e-02
-7.676712880981191589e-02
-8.000490138070759372e-02
-8.599244630314833993e-02
-9.381032503051844884e-02
-1.023723013260715714e-01
-1.105646356651891621e-01
-1.173821960959034322e-01
-1.220453173164744720e-01
-1.240842891600280468e-01
-1.233827374616759814e-01
-1.201764046472364872e-01
-1.150092909521226864e-01
-1.086541303933261232e-01
-1.020081707886744682e-01
-9.597776858687022405e-02
-9.136614932410419554e-02
-8.877778314620407563e-02
-8.855035105267908269e-02
-9.072157978867806394e-02
-9.503378234430420735e-02
-1.009743107492340614e-01
-1.078458648513156842e-01
-1.148572005310687649e-01
-1.212226201085286614e-01
-1.262579237977640711e-01
-1.294612925434451001e-01
-1.305697176254100866e-01
-1.295847959986413667e-01
-1.267655576207536716e-01
-1.225900062973063753e-01
-1.176907568600092518e-01
-1.127731080358977123e-01
-1.085257737031903313e-01
-1.055351124329763218e-01
-1.042130104845159638e-01
-1.047467042795264536e-01
-1.070760306820971036e-01
-1.109002235006181225e-01
-1.157128469614986527e-01
-1.208601921147779978e-01
-1.256158366635189705e-01
-1.292623738353698426e-01
-1.311707228750964849e-01
-1.308679800897898926e-01
-1.280863568973910072e-01
-1.227881613689045248e-01
-1.151647052320222409e-01
-1.056100985551649135e-01
-9.467376377955612210e-02
-8.299782829691888797e-02
-7.124708499520666927e-02
-6.003978843949244609e-02
-4.988714487405326858e-02
-4.114803737784689108e-02
-3.400349003054555647e-02
-2.845288167799108967e-02
-2.433128195186925330e-02
-2.134481702359262989e-02
-1.911896778569643560e-02
-1.725338112972882310e-02
-1.537626973036028064e-02
-1.319182033471437074e-02
-1.051515304970489575e-02
-7.291113971223201796e-03
-3.595309222625247755e-03
3.819696924465917258e-04
4.366196827358779717e-03
8.039031707148062630e-03
1.108322379297703789e-02
1.322615134040027590e-02
1.427651146773311133e-02
1.414971206232020808e-02
1.287906860529630659e-02
1.061177450770560762e-02
7.590552993922878439e-03
4.123669385516269027e-03
5.473707994630522223e-04
-2.814337179415703303e-03
-5.687460752063946794e-03
-7.878658847804699897e-03
-9.295093762664425469e-03
-9.951281593090492705e-03
-9.962426677822208004e-03
-9.525444732018479785e-03
-8.890408152401031716e-03
-8.326296358614454496e-03
-8.085565263258655613e-03
-8.372094104189575434e-03
-9.316529039988960537e-03
-1.096200011916059064e-02
-1.326178267096648003e-02
-1.608889098914570090e-02
-1.925603670710684945e-02
-2.254305669134691603e-02
-2.572798280338692983e-02
-2.861750605980672990e-02
-3.107272953064579846e-02
-3.302678459665006616e-02
-3.449201259178122370e-02
-3.555583836896154121e-02
-3.636599673099343011e-02
-3.710721601126628494e-02
-3.797262459203790130e-02
-3.913387359012402561e-02
-4.071416397215543714e-02
-4.276800015073059513e-02
-4.527060953498236034e-02
-4.811867950225395818e-02
-5.114253620462325817e-02
-5.412832250042741433e-02
-5.684733122668683691e-02
-5.908860371339147433e-02
-6.069035623342057539e-02
-6.156583141709545681e-02
-6.171979514629245128e-02
-6.125304418813808799e-02
-6.035381723929524739e-02
-5.927672202605373253e-02
-5.831148359307610635e-02
-5.774526151456828987e-02
-5.782328159908146914e-02
-5.871293748287886166e-02
-6.047626835394437350e-02
-6.305482202269872827e-02
-6.626946371181728634e-02
-6.983585846698758814e-02
-7.339436187237080578e-02
-7.655115066616326180e-02
-7.892585732154164258e-02
-8.019995281589108183e-02
-8.015979747488703733e-02
-7.872871528312445910e-02
-7.598361327896067940e-02
-7.215344093490000388e-02
-6.759896093204062484e-02
-6.277562119969577747e-02
-5.818349045369890227e-02
-5.430996772295200448e-02
-5.157206661989277574e-02
-5.026534799708801821e-02
-5.052597035125983016e-02
-5.231089307889575518e-02
-5.539915776071589748e-02
-5.941463001103900604e-02
-6.386791621198699420e-02
-6.821270742084244165e-02
-7.190986359479213663e-02
-7.449139727063018579e-02
-7.561631715495716055e-02
-7.511110616463180512e-02
-7.298936532886582396e-02
-6.944766332900427497e-02
-6.483759913037270839e-02
-5.961715007790436421e-02
-5.428715433421917730e-02
-4.932089883422205445e-02
-4.509595883579561176e-02
-4.183747473856906651e-02
-3.958090762662357792e-02
-3.816008526471477424e-02
-3.722327566520641090e-02
-3.627646237446755656e-02
-3.474937933617389119e-02
-3.207665283213544105e-02
-2.778402120610178744e-02
-2.156840272343027443e-02
-1.336076588787493517e-02
-3.362368736827167550e-03
7.952159702384537995e-03
1.986752564367057564e-02
3.149444823435353785e-02
4.186403047666356625e-02
5.003962759307415548e-02
5.523316424271713931e-02
5.691147797166297428e-02
5.487862248438069718e-02
4.932219987378939907e-02
4.081553834769860445e-02
3.027251566612826697e-02
1.885750236058786333e-02
7.858602049967943967e-03
-1.462597801276641334e-03
-8.027836650393407533e-03
-1.108675747540579896e-02
-1.033076405591389253e-02
-5.960246270003667635e-03
1.306087989849546776e-03
1.028474896408082193e-02
1.944158424384207634e-02
2.705677633083648434e-02
3.142430904462345520e-02
3.106433982405455013e-02
2.492400836553610582e-02
1.254202027834935146e-02
-5.844959280411346318e-03
-2.927063854094131071e-02
-5.609101668723934231e-02
-8.411958347946195402e-02
-1.108358338109700081e-01
-1.336480466759755736e-01
-1.501838484369975579e-01
-1.585772400301848906e-01
-1.577192035425063199e-01
-1.474410632231359097e-01
-1.286054140993803663e-01
-1.030881987139220940e-01
-7.364658718622645039e-02
-4.367958332477590855e-02
-1.690044179174187214e-02
3.049303172963017342e-03
1.300636811991071930e-02
1.067063426430665471e-02
-5.073759748753369804e-03
-3.393887342162499321e-02
-7.414400267236304076e-02
-1.224741828900863944e-01
-1.744885837249832428e-01
-2.248659033151960140e-01
-2.678592691291589722e-01
-2.978208226616907983e-01
-3.097474684774260689e-01
-2.997952196354172205e-01
-2.657107286977087868e-01
-2.071349820310079137e-01
-1.257452360206439967e-01
-2.521606697982589282e-02
8.900253091910154124e-02
2.100744185339193659e-01
3.303019167954194257e-01
4.417401143018893639e-01
5.368459320341498753e-01
6.091029438166423171e-01
6.535646144934004198e-01
6.672658801517760141e-01
6.494651643745884551e-01
6.016948099237360292e-01
5.276159329032378276e-01
4.326920851952252289e-01
3.237130172802775707e-01
2.082135961503061017e-01
9.384220935048757928e-02
-1.226310446047529194e-02
-1.040343454769325909e-01
-1.769198428186734562e-01
-2.281798029740963185e-01
-2.570090382961572328e-01
-2.644818620375835594e-01
-2.533312604058814421e-01
-2.275899222213333406e-01
-1.921330109674976860e-01
-1.521705487374296062e-01
-1.127402606201722141e-01
-7.824954707039219470e-02
-5.210829058731109714e-02
-3.648332339701774313e-02
-3.219182781116312203e-02
-3.873619173301841301e-02
-5.446845925345408096e-02
-7.685997031233339494e-02
-1.028423043236691287e-01
-1.291800944360737557e-01
-1.528350829914436326e-01
-1.712838894840481851e-01
-1.827588520601917121e-01
-1.863910910769003559e-01
-1.822464619713162204e-01
-1.712570099236121746e-01
-1.550616117043874254e-01
-1.357785395525584748e-01
-1.157388227162683414e-01
-9.721198265954829332e-02
-8.215484261935700194e-02
-7.200992260305145998e-02
-6.757304100383003387e-02
-6.894103741064938617e-02
-7.554105338516675650e-02
-8.623364507005472357e-02
-9.947415520129811173e-02
-1.135110546298584711e-01
-1.265969130617640714e-01
-1.371874908921863478e-01
-1.441070418565661149e-01
-1.466628573285054526e-01
-1.446986983612749134e-01
-1.385842255052705529e-01
-1.291449610805092130e-01
-1.175438645918966407e-01
-1.051305636390412329e-01
-9.327717078360843461e-02
-8.322019766572363864e-02
-7.592639490820467241e-02
-7.199669921269882811e-02
-7.161736988646040525e-02
-7.456150148459952942e-02
-8.023812469941798975e-02
-8.778074790677566075e-02
-9.616303773623524620e-02
-1.043268126417312980e-01
-1.113068439312630969e-01
-1.163381155326274619e-01
-1.189339636837558195e-01
-1.189275016614747132e-01
-1.164734081627152307e-01
-1.120119420898735008e-01
-1.062013752161839741e-01
-9.982842196716250338e-02
-9.370833983366594344e-02
-8.858699062603406227e-02
-8.505629148154564279e-02
-8.349231801439514766e-02
-8.402217012972787447e-02
-8.652199436056330628e-02
-9.064474314337503391e-02
-9.587279822572682131e-02
-1.015878844062316766e-01
-1.071490357512420583e-01
-1.119688957066725388e-01
-1.155793343352981978e-01
-1.176791080952733631e-01
-1.181588097891047712e-01
-1.171013191096501038e-01
-1.147589900598906115e-01
-1.115115364318726293e-01
-1.078106872156987805e-01
-1.041189599957225431e-01
-1.008502303564978581e-01
-9.831916786743348513e-02
-9.670518647733508666e-02
-9.603453121526124570e-02
-9.618176978936625321e-02
-9.688957733179102971e-02
-9.780358248349711736e-02
-9.851742424663825770e-02
-9.862221891755117154e-02
-9.775443158618267459e-02
-9.563667011765282500e-02
-9.210706506255311732e-02
-8.713449266777714697e-02
-8.081871966435302812e-02
-7.337636523076736250e-02
-6.511516640484613094e-02
-5.640022169121775009e-02
-4.761655521021112419e-02
-3.913244561633275054e-02
-3.126752669144002711e-02
-2.426878278542398196e-02
-1.829637378332554104e-02
-1.341990057225771367e-02
-9.624437876814712425e-03
-6.824573899166141294e-03
-4.883925211804052494e-03
-3.637211631098041451e-03
-2.911994236946064980e-03
-2.547561990956764832e-03
-2.409115146867965140e-03
-2.396224308520293264e-03
-2.445414927040448667e-03
-2.527518176363094567e-03
-2.641039732884065908e-03
-2.803162075589582438e-03
-3.040086967892740352e-03
-3.378258435041545625e-03
-3.837633608721103488e-03
-4.427666346637263405e-03
-5.146127096888604251e-03
-5.980390286430374569e-03
-6.910452004910994442e-03
-7.912744861263490415e-03
-8.963810836635447560e-03
-1.004306288165214035e-02
-1.113416767523888601e-02
-1.222495229980552316e-02
-1.330610426362090204e-02
-1.436922693441829851e-02
-1.540497645476398246e-02
-1.640201001980552686e-02
-1.734731664390736297e-02
-1.822820649812386187e-02
-1.903585569210150194e-02
-1.976990855259395594e-02
-2.044330260892369619e-02
-2.108627118561967259e-02
-2.174844337157886068e-02
-2.249812400239618176e-02
-2.341818761615841599e-02
-2.459851835298831196e-02
-2.612550339489473628e-02
-2.806965412359523418e-02
-3.047289426328984169e-02
-3.333733459430221480e-02
-3.661738737728198467e-02
-4.021683163028855201e-02
-4.399193326452045805e-02
-4.776100206690229999e-02
-5.131991666338659580e-02
-5.446227991741210694e-02
-5.700210271157223757e-02
-5.879636960367536774e-02
-5.976460859511635582e-02
-5.990272516608353276e-02
-5.928887657692383240e-02
-5.808001306974584776e-02
-5.649880738841114858e-02
-5.481190238850455754e-02
-5.330157555800003194e-02
-5.223389176164770081e-02
-5.182705192040146236e-02
-5.222384203069627834e-02
-5.347179356179610626e-02
-5.551389476724648275e-02
-5.819151625048111370e-02
-6.125976629934349466e-02
-6.441394389862384329e-02
-6.732430547761000805e-02
-6.967519653733028617e-02
-7.120388368179078609e-02
-7.173426785218116331e-02
-7.120110978756671871e-02
-6.966142171477775202e-02
-6.729116632859183378e-02
-6.436718372468692995e-02
-6.123612251986213645e-02
-5.827384753915238608e-02
-5.584011005596532101e-02
-5.423401488822175015e-02
-5.365588535375584445e-02
-5.418047963899477043e-02
-5.574520875975175205e-02
-5.815519240503679022e-02
-6.110488144887721990e-02
-6.421383716988759982e-02
-6.707236396091433017e-02
-6.929129800097159897e-02
-7.054955943422694387e-02
-7.063319356377217861e-02
-6.946057258487907393e-02
-6.709010902362930184e-02
-6.370905221780899519e-02
-5.960442932580181652e-02
-5.511963449301547635e-02
-5.060224107039452274e-02
-4.635002277667815695e-02
-4.256270682755902007e-02
-3.930653568820166588e-02
-3.649729907483544034e-02
-3.390525601822300117e-02
-3.118255454860604375e-02
-2.791071699113111329e-02
-2.366288034812599750e-02
-1.807315069488697745e-02
-1.090398224149026485e-02
-2.102162443583984082e-03
8.165121965393888973e-03
1.950059545157636562e-02
3.129699900217375319e-02
4.278673577534954781e-02
5.311693409119953857e-02
6.144222489943453741e-02
6.702471672841174566e-02
6.932900409813454179e-02
6.809984537993016285e-02
6.341150157358067807e-02
5.568056028954191522e-02
4.563810867723933767e-02
3.426193101879861092e-02
2.267443459734886160e-02
1.201663813383065278e-02
3.312192473509486222e-03
-2.662465187558905617e-03
-5.485445571723465696e-03
-5.159573263320690537e-03
-2.134352716845193398e-03
2.726098991627764860e-03
8.228756097521636864e-03
1.298406145009183173e-02
1.557188567661033432e-02
1.472305119055842236e-02
9.495342705631864069e-03
-5.777958377190623926e-04
-1.538583804403918093e-02
-3.420265379777832210e-02
-5.572006304932061033e-02
-7.815469668589251906e-02
-9.942081649626853534e-02
-1.173534927174310211e-01
-1.299595896461563094e-01
-1.356692450257725724e-01
-1.335586199240774985e-01
-1.235160201358761201e-01
-1.063280752434044296e-01
-8.367016562157851556e-02
-5.799502033389542649e-02
-3.232439557474392489e-02
-9.959823094125266202e-03
5.861636460415983914e-03
1.233304419668628839e-02
7.426634829017331879e-03
-9.812262453991315442e-03
-3.906137213004851755e-02
-7.863511125604032148e-02
-1.255323351555553135e-01
-1.756217256092542367e-01
-2.239542992400593013e-01
-2.651789261960342814e-01
-2.940250803401407986e-01
-3.058085836921001222e-01
-2.969118535765834510e-01
-2.651906892619479428e-01
-2.102650410019482052e-01
-1.336610735711893372e-01
-3.878528032756931032e-02
6.927285872739626094e-02
1.840966956649388309e-01
2.984281498625066531e-01
4.047417122493844333e-01
4.958558352626963872e-01
5.655264250820032368e-01
6.089680877983049134e-01
6.232550155351240795e-01
6.075643539633878154e-01
5.632395100494322904e-01
4.936677015992023132e-01
4.039834524359021128e-01
3.006259764286910441e-01
1.907918647025945991e-01
8.183387476642521585e-02
-1.933898307063323940e-02
-1.068058487311014382e-01
-1.760748964970648700e-01
-2.243834379505473819e-01
-2.508341361468252040e-01
-2.563603251315366705e-01
-2.435298408470462916e-01
-2.162118526067991764e-01
-1.791434632527231230e-01
-1.374411633442051972e-01
-9.610584832008511880e-02
-5.956880381465578383e-02
-3.132010815202484338e-02
-1.365103652888090616e-02
-7.529403425302999900e-03
-1.261272764484773490e-02
-2.739012936240801943e-02
-4.943139851486737929e-02
-7.571193303861074864e-02
-1.029761330571529881e-01
-1.280998424210259556e-01
-1.484145921338800578e-01
-1.619623242171394917e-01
-1.676581798076879071e-01
-1.653497585503605760e-01
-1.557727715202862906e-01
-1.404139671701732928e-01
-1.213014694791920978e-01
-1.007493181672217686e-01
-8.108645037686015855e-02
-6.440038900267261446e-02
-5.232266163685615756e-02
-4.587697057622117103e-02
-4.540315131598981341e-02
-5.056095887595295213e-02
-6.040874030778103226e-02
-7.354407263818038554e-02
-8.828729811426878904e-02
-1.028851631385398480e-01
-1.157107594032265041e-01
-1.254376553724131094e-01
-1.311701748702339965e-01
-1.325176576655064664e-01
-1.296074784319251327e-01
-1.230387750295829780e-01
-1.137854265347216648e-01
-1.030621105539090976e-01
-9.217072419525558502e-02
-8.234577081172700375e-02
-7.461644914821392860e-02
-6.970033752851360898e-02
-6.793916285817312717e-02
-6.928176146641487620e-02
-7.331363960209301422e-02
-7.932719536359648937e-02
-8.642226896640650691e-02
-9.362370531877954594e-02
-1.000013190916069494e-01
-1.047781171899325320e-01
-1.074147192187635824e-01
-1.076613048264168648e-01
-1.055726517018556604e-01
-1.014863766280965085e-01
-9.596880827162640459e-02
-8.973651022412769407e-02
-8.356394935847290262e-02
-7.818892759451838426e-02
-7.422709505126980079e-02
-7.210523847326227864e-02
-7.202034276045646277e-02
-7.392802063144424118e-02
-7.756023181694592095e-02
-8.246871443234583821e-02
-8.808763693044018017e-02
-9.380696972683597035e-02
-9.904717341503969930e-02
-1.033260658825361500e-01
-1.063100843845293381e-01
-1.078443941698154773e-01
-1.079591095787070104e-01
-1.068519260595834075e-01
-1.048503397601015380e-01
-1.023590142914354711e-01
-9.979947392155574803e-02
-9.754999094824658157e-02
-9.589324159059677000e-02
-9.497809893284078764e-02
-9.479998877672814184e-02
-9.520181298743159160e-02
-9.589485235916780925e-02
-9.649661472024109732e-02
-9.658058482247254550e-02
-9.573148988102894719e-02
-9.359916136737109205e-02
-8.994439190974554132e-02
-8.467129489044203372e-02
-7.784242080122599772e-02
-6.967504197814794464e-02
-6.051931789544565121e-02
-5.082121824341481048e-02
-4.107485389458962605e-02
-3.177004436087006028e-02
-2.334140632950953628e-02
-1.612494247645495857e-02
-1.032709558846258563e-02
-6.009644936202718397e-03
-3.091860805553884976e-03
-1.369239322634020154e-03
-5.461652551406079000e-04
-2.782280925601853666e-04
-2.188335960556801654e-04
-6.432975081857713814e-05
4.078577416606805916e-04
1.312651555547876764e-03
2.645410703347168650e-03
4.285954381523961534e-03
6.017834795485656196e-03
7.560311431690665968e-03
8.608939449905622654e-03
8.879646067536262760e-03
8.150751466695461273e-03
6.297640928798767246e-03
3.315680464044097088e-03
-6.716180626692966381e-04
-5.420402006740773250e-03
-1.058954847317201270e-02
-1.577644775684041573e-02
-2.056139382437611324e-02
-2.455540081916793987e-02
-2.744579491970426666e-02
-2.903412521511135325e-02
-2.926177501151380755e-02
-2.822004292558092167e-02
-2.614324196438186018e-02
-2.338533050101667884e-02
-2.038251375590406644e-02
-1.760591473808397964e-02
-1.550961390655694605e-02
-1.447995472079836692e-02
-1.479193208252157360e-02
-1.657772661841360948e-02
-1.981109956311741596e-02
-2.430957178731482995e-02
-2.975427842456315752e-02
-3.572535116842872477e-02
-4.174886871456386789e-02
-4.735004540204378748e-02
-5.210656178971403291e-02
-5.569587456236425177e-02
-5.793099278720976325e-02
-5.878050506343168724e-02
-5.837044562453513191e-02
-5.696769085596578575e-02
-5.494674124242375501e-02
-5.274371318196897918e-02
-5.080290887211563744e-02
-4.952226200601348577e-02
-4.920415587285244946e-02
-5.001754381672511574e-02
-5.197602556670117419e-02
-5.493468689667865140e-02
-5.860630428569545136e-02
-6.259520542389437892e-02
-6.644493495922497439e-02
-6.969415875771375890e-02
-7.193416264220225953e-02
-7.286100185704881549e-02
-7.231588585327378138e-02
-7.030869211588675061e-02
-6.702144895024100824e-02
-6.279099043852087725e-02
-5.807249012096248747e-02
-5.338792435825229221e-02
-4.926541590049002967e-02
-4.617662338969014124e-02
-4.447971206145806544e-02
-4.437490177400126717e-02
-4.587818627055708504e-02
-4.881670435126158475e-02
-5.284666127861121360e-02
-5.749195256165995360e-02
-6.219906513917138058e-02
-6.640174382474145487e-02
-6.958758262813945217e-02
-7.135831390898678128e-02
-7.147619564456203500e-02
-6.989048676464562626e-02
-6.674038141725954776e-02
-6.233367058336729966e-02
-5.710346612127963767e-02
-5.154818075729662719e-02
-4.616224193868776610e-02
-4.136642364544882572e-02
-3.744700179977692583e-02
-3.451209867492553707e-02
-3.247164511843009249e-02
-3.104455892884694021e-02
-2.979333878761700888e-02
-2.818271086049704138e-02
-2.565568338441839846e-02
-2.171778855099172276e-02
-1.601877478824413267e-02
-8.420793588229733354e-03
9.567121123442926933e-04
1.172274957734501313e-02
2.323496822183638774e-02
3.465395194281335745e-02
4.502692101907581484e-02
5.339217538882135711e-02
5.889250886034579080e-02
6.088402439849458642e-02
5.902657207575785075e-02
5.334351797756959473e-02
4.424163627914504821e-02
3.248630002486191382e-02
1.913235624483974884e-02
5.416513236067448979e-03
-7.377910076958053322e-03
-1.806905403718288977e-02
-2.572020841093175525e-02
-2.976150243525660724e-02
-3.007366279534338591e-02
-2.702161059666714771e-02
-2.143104451090016224e-02
-1.450764683560046633e-02
-7.705433272499134616e-03
-2.557243209818219499e-03
-4.856431769759640064e-04
-2.615902587601391834e-03
-9.613698143543125685e-03
-2.156856990440454008e-02
-3.793994323615542535e-02
-5.757610660615934683e-02
-7.880853260155648576e-02
-9.961519968279261561e-02
-1.178380919484122019e-01
-1.314328188838452260e-01
-1.387232055103887196e-01
-1.386314509861602817e-01
-1.308554439930572633e-01
-1.159691086537567306e-01
-9.542891599295812155e-02
-7.147926292988442121e-02
-4.696033359282972969e-02
-2.503316207527568268e-02
-8.846686873278263377e-03
-1.179461410931684651e-03
-4.093393410563304566e-03
-1.863776772115850744e-02
-4.463859669285299286e-02
-8.060120750025266678e-02
-1.237435206009782213e-01
-1.701646820945976191e-01
-2.151398557575937287e-01
-2.535184884489703472e-01
-2.801916723953118971e-01
-2.905856307641239700e-01
-2.811338521097831444e-01
-2.496805921577070764e-01
-1.957734699831963354e-01
-1.208123287450422328e-01
-2.803455614803185281e-02
7.766757791686412782e-02
1.900858223269492331e-01
3.021639543882708168e-01
4.065547555765291476e-01
4.962165211080616922e-01
5.649950915521003703e-01
6.081380410508863132e-01
6.226935158325033193e-01
6.077567436487177899e-01
5.645414063491882573e-01
4.962694863520670796e-01
4.078902336231293724e-01
3.056548622535180670e-01
1.965868931487599613e-01
8.789740730085464360e-02
-1.360103516109962760e-02
-1.020288206386438523e-01
-1.728749468285032398e-01
-2.232971689438355001e-01
-2.522635820553273400e-01
-2.605282461865123245e-01
-2.504494532435000420e-01
-2.256739623719614118e-01
-1.907225486055524888e-01
-1.505203804789257971e-01
-1.099193480567224046e-01
-7.325827073071373985e-02
-4.400119072336519666e-02
-2.448443052015348426e-02
-1.579085822989416063e-02
-1.775621138856527462e-02
-2.909882261155249256e-02
-4.765205971357232978e-02
-7.066942830412303866e-02
-9.516645432738381205e-02
-1.182616331826568251e-01
-1.374809264901976913e-01
-1.509961043478597886e-01
-1.577758979814350981e-01
-1.576393960945906558e-01
-1.512121896977853819e-01
-1.397962272305075249e-01
-1.251730840565906111e-01
-1.093665084110880120e-01
-9.439312737934732467e-02
-8.202989603615730430e-02
-7.362343592789268032e-02
-6.996036050805265472e-02
-7.120981419053379335e-02
-7.694071822672786387e-02
-8.620763349524966646e-02
-9.769167237843758012e-02
-1.098773086155842016e-01
-1.212427888389707165e-01
-1.304413887659873206e-01
-1.364529128789643830e-01
-1.386892487379994265e-01
-1.370438536441633548e-01
-1.318820084336011500e-01
-1.239756857971059806e-01
-1.143931424192235202e-01
-1.043581687947720688e-01
-9.509682256786869403e-02
-8.769017792086203356e-02
-8.295015395636698430e-02
-8.133209711515689000e-02
-8.289295586415452999e-02
-8.729821758381513253e-02
-9.387496707072791324e-02
-1.017031509861735933e-01
-1.097329834286019795e-01
-1.169138403036580204e-01
-1.223192026737295185e-01
-1.252532435742784722e-01
-1.253273170275406301e-01
-1.224985300641961150e-01
-1.170672557253025214e-01
-1.096353047202897474e-01
-1.010309471181665558e-01
-9.221055910060502181e-02
-8.414898459410009857e-02
-7.773152939205334178e-02
-7.365981019982802136e-02
-7.238160468688377425e-02
-7.405168671041016670e-02
-7.852679461491571256e-02
-8.539384054941281943e-02
-9.402670174444766049e-02
-1.036638646262273422e-01
-1.134971456591437194e-01
-1.227608818540178448e-01
-1.308114129208911847e-01
-1.371882616956047463e-01
-1.416509249891354238e-01
-1.441882829085679996e-01
-1.450009352013288677e-01
-1.444598867018559440e-01
-1.430475776581879854e-01
-1.412890146178827633e-01
-1.396815372238988939e-01
-1.386315105413785664e-01
-1.384050378485182642e-01
-1.390978287400736757e-01
-1.406268959950166264e-01
-1.427441010164682000e-01
-1.450690390861376911e-01
-1.471366394938633249e-01
-1.484533756255458081e-01
-1.485552767341100644e-01
-1.470610473557734110e-01
-1.437144775642469063e-01
-1.384118260118235577e-01
-1.312117722959582899e-01
-1.223276222344271413e-01
-1.121034595146928187e-01
-1.009776438460189413e-01
-8.943827939037950203e-02
-7.797590688473335363e-02
-6.703867142191546891e-02
-5.699462413907744468e-02
-4.810473607300672083e-02
-4.050878928760865555e-02
-3.422474945021322656e-02
-2.916070173759759479e-02
-2.513712055210132537e-02
-2.191627655530037008e-02
-1.923504673465737530e-02
-1.683731413634721383e-02
-1.450249567623356634e-02
-1.206744557002128668e-02
-9.439937745885400994e-03
-6.603004240086052593e-03
-3.610465214289913707e-03
-5.749122074680631427e-04
2.349893279077605243e-03
4.989825929883762688e-03
7.171911150223609158e-03
8.744218118149715488e-03
9.592202529193398497e-03
9.650133775417702245e-03
8.906886827704848381e-03
7.406024715247010691e-03
5.240672699424958093e-03
2.544137150555474906e-03
-5.224802530473016170e-04
-3.784287510300475815e-03
-7.066856811764639715e-03
-1.020949759270371564e-02
-1.307654352569171882e-02
-1.556592238526970963e-02
-1.761456457158859512e-02
-1.920047791288044536e-02
-2.034155623223629986e-02
-2.109138953549461251e-02
-2.153250542475461035e-02
-2.176760083563744272e-02
-2.190942581677127188e-02
-2.207006265096416939e-02
-2.235040146703978076e-02
-2.283064179745817809e-02
-2.356263531957941346e-02
-2.456481405997036280e-02
-2.582030708391750209e-02
-2.727863005463604038e-02
-2.886103883732591899e-02
-3.046928528404702421e-02
-3.199713012011824731e-02
-3.334359496699633441e-02
-3.442662134346740482e-02
-3.519560027581990908e-02
-3.564118541821367087e-02
-3.580093717373345613e-02
-3.575967491609592652e-02
-3.564392533732420321e-02
-3.561050510060651680e-02
-3.583000042905520183e-02
-3.646662060348671019e-02
-3.765651362486591852e-02
-3.948704977794984666e-02
-4.197972775772149806e-02
-4.507918965796561123e-02
-4.865033388300404882e-02
-5.248471875851189877e-02
-5.631642556826212814e-02
-5.984640602776525320e-02
-6.277320858762799882e-02
-6.482700473485213111e-02
-6.580315610484381572e-02
-6.559128695585564328e-02
-6.419602249341709033e-02
-6.174623658267535536e-02
-5.849077653611158695e-02
-5.478009295773789838e-02
-5.103484494182754933e-02
-4.770418546117818209e-02
-4.521785792551911293e-02
-4.393726211085899336e-02
-4.411112301230026705e-02
-4.584122460652163833e-02
-4.906282973887361037e-02
-5.354295764012816095e-02
-5.889776956541036695e-02
-6.462812546741393549e-02
-7.017016974995372858e-02
-7.495584841849417534e-02
-7.847680385642431811e-02
-8.034434177345561867e-02
-8.033824628828190040e-02
-7.843816904133922574e-02
-7.483306781682018405e-02
-6.990654874006585473e-02
-6.419872051419689418e-02
-5.834798458655962583e-02
-5.301872680446604452e-02
-4.882282499758891503e-02
-4.624398019456245346e-02
-4.557394686845619991e-02
-4.686872441708965498e-02
-4.993075213134305634e-02
-5.432032131916984807e-02
-5.939608627512207861e-02
-6.438109870506614207e-02
-6.844761785051134417e-02
-7.081145345007633374e-02
-7.082510709701932139e-02
-6.805870844045096291e-02
-6.235877600868347526e-02
-5.387709435057494445e-02
-4.306526422947880989e-02
-3.063439692780555237e-02
-1.748354099813961490e-02
-4.604262587083486451e-03
7.028120983390980306e-03
1.656422774933410252e-02
2.337828738228866360e-02
2.714190564479419809e-02
2.786450551094488137e-02
2.589473410867524847e-02
2.188162989536157274e-02
1.669913837383843122e-02
1.134207668438390673e-02
6.805324159204960595e-03
3.960384304935179491e-03
3.444195175547262646e-03
5.574016757561941343e-03
1.029946527392025871e-02
1.719857379532322220e-02
2.551959948887390708e-02
3.426476413180111480e-02
4.230686929688960707e-02
4.852541830634415215e-02
5.194606128394706895e-02
5.186625218659367959e-02
4.795114522916337635e-02
4.028689610304364566e-02
2.938335727969118572e-02
1.612413719754110866e-02
1.668439387265813244e-03
-1.268476128470467749e-02
-2.565457678845197917e-02
-3.613912969079734194e-02
-4.335944192885093224e-02
-4.696748954774741802e-02
-4.710330076693551582e-02
-4.439167177295973848e-02
-3.987618388101739353e-02
-3.489591766457674632e-02
-3.091766225294460477e-02
-2.934259542775775192e-02
-3.131055702794764695e-02
-3.752655737979489203e-02
-4.813274759064179592e-02
-6.264476039868184520e-02
-7.996448771453285032e-02
-9.847269146463373535e-02
-1.161952925768469369e-01
-1.310278423107257006e-01
-1.409946676897669560e-01
-1.445135125225103512e-01
-1.406339516510817511e-01
-1.292188970367227352e-01
-1.110432015268111167e-01
-8.779134336069818745e-02
-6.194669194958087044e-02
-3.657683687081576818e-02
-1.503161865852962152e-02
-5.814648055685595193e-04
3.967883105345498991e-03
-3.356766183713209752e-03
-2.338728014294116572e-02
-5.560232992817484149e-02
-9.804203712063629117e-02
-1.473669512342338506e-01
-1.990648719778465026e-01
-2.477936800393439054e-01
-2.878335401984876141e-01
-3.136091879763135970e-01
-3.202339269731293570e-01
-3.040225288212682897e-01
-2.629210636701771464e-01
-1.968078724952906089e-01
-1.076309416392575852e-01
6.381531577860434816e-04
1.222362359370121193e-01
2.500109196286012803e-01
3.759609452455758283e-01
4.918679656185730997e-01
5.899635457904461866e-01
6.635708110673300686e-01
7.076617194775991493e-01
7.192782756008633260e-01
6.977784509554321168e-01
6.448839176532640272e-01
5.645253223451806024e-01
4.624998706426557971e-01
3.459735637948078146e-01
2.228747806440419255e-01
1.012356182493696355e-01
-1.145844278802289791e-02
-1.088517589254560242e-01
-1.861833048952864500e-01
-2.405940211561632958e-01
-2.712536274626831667e-01
-2.793016099213987413e-01
-2.676149903213619341e-01
-2.404316855451704982e-01
-2.028711713735840694e-01
-1.604025604911807346e-01
-1.183133591906672943e-01
-8.122990876734743904e-02
-5.273323463553319240e-02
-3.510261815887909254e-02
-2.920497403215052690e-02
-3.453261738115201429e-02
-4.937688135416835877e-02
-7.111185045692033913e-02
-9.655250583597026204e-02
-1.223457529719796932e-01
-1.453515677027633068e-01
-1.629747978351418491e-01
-1.734154612896575964e-01
-1.758157448005674139e-01
-1.702940965159880082e-01
-1.578694376418957879e-01
-1.402902159750427091e-01
-1.197925649719768365e-01
-9.881827723863916002e-02
-7.972608570994989263e-02
-6.452872776146616196e-02
-5.468372800379563831e-02
-5.095843166536195151e-02
-5.338049709687125305e-02
-6.127493294660914941e-02
-7.337900354080770238e-02
-8.801799783482967821e-02
-1.033188303360417226e-01
-1.174352905629273275e-01
-1.287587077688419346e-01
-1.360907177839039139e-01
-1.387602480252810300e-01
-1.366740488307760237e-01
-1.302981972660408883e-01
-1.205760223764211214e-01
-1.087949375036541266e-01
-9.641995341248267570e-02
-8.491465726467167796e-02
-7.557092899527402541e-02
-6.936668236928955622e-02
-6.686679760581706877e-02
-6.817672302804349271e-02
-7.295168953037359239e-02
-8.045789587491353201e-02
-8.967614989892021271e-02
-9.943394295036371566e-02
-1.085492567816421228e-01
-1.159687886425417730e-01
-1.208847146511891069e-01
-1.228173393851768325e-01
-1.216555471009675149e-01
-1.176522855499455150e-01
-1.113777212162257446e-01
-1.036375654083823844e-01
-9.536783476113407099e-02
-8.751957967469545241e-02
-8.094768387432330070e-02
-7.631671145139182211e-02
-7.403415854112357919e-02
-7.421772766139118904e-02
-7.669887491940974300e-02
-8.106042967617033135e-02
-8.670208747651535208e-02
-9.292449004407320190e-02
-9.902076462145162350e-02
-1.043639699212849381e-01
-1.084798837184429293e-01
-1.110967941502272460e-01
-1.121671081463573305e-01
-1.118592499997309309e-01
-1.105220324326845333e-01
-1.086269898685763152e-01
-1.066966852308349339e-01
-1.052284595075880375e-01
-1.046233485285758408e-01
-1.051289545693841476e-01
-1.068030850677752636e-01
-1.095022300546409921e-01
-1.128958008531273927e-01
-1.165038881239769814e-01
-1.197534999050127447e-01
-1.220461346073230119e-01
-1.228283617096924268e-01
-1.216569356173615446e-01
-1.182508408127986438e-01
-1.125244205845572637e-01
-1.045981384456290408e-01
-9.478625302763572791e-02
-8.356341546250217744e-02
-7.151459811900358343e-02
-5.927455938704043192e-02
-4.746404877267670214e-02
-3.663006915344155928e-02
-2.719675810689483469e-02
-1.943195070581496542e-02
-1.343244928695357283e-02
-9.128716650103058453e-03
-6.307414565817103143e-03
-4.648203687955575376e-03
-3.769732946805989110e-03
-3.278932706053862538e-03
-2.817655385388355416e-03
-2.101355519535086890e-03
-9.457572529101453867e-04
7.208592824302102048e-04
2.860236367746268708e-03
5.340219201562149132e-03
7.961394932517287457e-03
1.049021324188074977e-02
1.269394713808436395e-02
1.437289953795866347e-02
1.538588677729785595e-02
1.566612647115486756e-02
1.522606489603142189e-02
1.415120328156511779e-02
1.258442266381262949e-02
1.070348116823348870e-02
8.695124462984687302e-03
6.729527991255325990e-03
4.938560612384753842e-03
3.400675601682378105e-03
2.134202890927650639e-03
1.099587503280864860e-03
2.098633821897702488e-04
-6.524609368561486459e-04
-1.614753396230750922e-03
-2.792929470930476891e-03
-4.272523240135064904e-03
-6.094810214553812201e-03
-8.249849106113352551e-03
-1.067728568410391057e-02
-1.327464361374306248e-02
-1.591177074038785735e-02
-1.844925937428625734e-02
-2.075812987698995651e-02
-2.273792638695197599e-02
-2.433063686514357754e-02
-2.552847484598813957e-02
-2.637445705932729700e-02
-2.695575148554858053e-02
-2.739080821191786086e-02
-2.781217431456469921e-02
-2.834750961129450797e-02
-2.910157523518416486e-02
-3.014182523496092281e-02
-3.148971067065820667e-02
-3.311897776338219856e-02
-3.496122148684018688e-02
-3.691788627697192154e-02
-3.887693849307258948e-02
-4.073171016836463904e-02
-4.239903870721572349e-02
-4.383386314247159771e-02
-4.503788970516542367e-02
-4.606075342436465048e-02
-4.699317371329960608e-02
-4.795278495185111706e-02
-4.906445451217446296e-02
-5.043781701333077683e-02
-5.214531744609283981e-02
-5.420417241544258496e-02
-5.656529251520269613e-02
-5.911138895036287255e-02
-6.166530637177469742e-02
-6.400822862480519404e-02
-6.590597549751012196e-02
-6.714034216880288009e-02
-6.754151000468545940e-02
-6.701712163198472738e-02
-6.557375051453141757e-02
-6.332721782123133802e-02
-6.049945403278052247e-02
-5.740123164518036447e-02
-5.440191520831800381e-02
-5.188915706281367612e-02
-5.022297508898352497e-02
-4.968967218470121683e-02
-5.046143592422754759e-02
-5.256710714104582266e-02
-5.587853353298326275e-02
-6.011522710153266447e-02
-6.486790537691873582e-02
-6.963916434754295615e-02
-7.389729057079155727e-02
-7.713735800872441317e-02
-7.894252551159568199e-02
-7.903803837437822777e-02
-7.733093514141961555e-02
-7.392985051958925191e-02
-6.914145812154685877e-02
-6.344278187084988196e-02
-5.743151602640526876e-02
-5.175928185097902756e-02
-4.705506535195549261e-02
-4.384761930450613993e-02
-4.249615062742300581e-02
-4.313804064552913958e-02
-4.566068328589800024e-02
-4.970193051117688388e-02
-5.468038209369675134e-02
-5.985321700204846579e-02
-6.439585399998057347e-02
-6.749486915284938493e-02
-6.844365666065568843e-02
-6.672956856565492867e-02
-6.210184564422398940e-02
-5.461153746752504812e-02
-4.461762667683741301e-02
-3.275739842867934903e-02
-1.988329933377568776e-02
-6.972616699440167300e-03
4.980217937156570553e-03
1.507647876822622302e-02
2.261789295421088100e-02
2.719055239180928271e-02
2.871732973530999669e-02
2.747156359798634886e-02
2.404918958645849147e-02
1.930139306941832528e-02
1.423467282884009408e-02
9.889347592092779041e-03
7.210488041388581938e-03
6.926618708345625916e-03
9.451089649639326032e-03
1.481876070579589595e-02
2.266678300498696161e-02
3.226321628384860862e-02
4.258155704950726539e-02
5.241363484067680656e-02
6.050844386057960961e-02
6.572093033540163387e-02
6.715302703411288321e-02
6.426958623637857304e-02
5.697433910058260359e-02
4.563537493459602495e-02
3.105542513135270064e-02
1.438880146085793829e-02
-2.986592571369227692e-03
-1.962798120688113296e-02
-3.419871494934204059e-02
-4.563093450769729192e-02
-5.325955885507770160e-02
-5.691002170931120513e-02
-5.692720021315654522e-02
-5.413973280987631476e-02
-4.976166054525415355e-02
-4.524115113467269689e-02
-4.207303393947508380e-02
-4.159710897128141016e-02
-4.480698728851424673e-02
-5.219413001438164001e-02
-6.364866080564567097e-02
-7.843266639680337993e-02
-9.523364486611379798e-02
-1.122963698826929535e-01
-1.276217640188603286e-01
-1.392125484684414716e-01
-1.453385425164512856e-01
-1.447904292537237070e-01
-1.370901989931714859e-01
-1.226295702090284684e-01
-1.027142959486776613e-01
-7.950180469569535779e-02
-5.583115151145289640e-02
-3.495655212518872929e-02
-2.020748485394870467e-02
-1.460812550270461189e-02
-2.049554226693136791e-02
-3.917873305281677904e-02
-7.067875793913697136e-02
-1.135839027704003412e-01
-1.650434971644353099e-01
-2.209106487030125798e-01
-2.760290578562338282e-01
-3.246437934337917386e-01
-3.609020560396438704e-01
-3.793990575142557886e-01
-3.757174492146542200e-01
-3.469070835532864217e-01
-2.918556234613559619e-01
-2.115093970697679016e-01
-1.089171577145680303e-01
1.091419561290517780e-02
1.413449565648274842e-01
2.745843617961344352e-01
4.022884976596087236e-01
5.162221669128075341e-01
6.089255060364967553e-01
6.743248249746280898e-01
7.082317104884717773e-01
7.086844846004719534e-01
6.761006734926008344e-01
6.132267877533350564e-01
5.248906945682182412e-01
4.175802910629092257e-01
2.988882403157206435e-01
1.768746272356357119e-01
5.940636112579963241e-02
-4.646664834783936077e-02
-1.350431369264533110e-01
-2.023644549766240308e-01
-2.464394853965684584e-01
-2.672859969805987945e-01
-2.667917851827871778e-01
-2.484160158862555312e-01
-2.167657612256661259e-01
-1.770934012257450452e-01
-1.347663908928508625e-01
-9.476141159123975533e-02
-6.123024641895091075e-02
-3.717548173337124895e-02
-2.426143540147964947e-02
-2.277096480505710896e-02
-3.170360316103795761e-02
-4.899639513404309421e-02
-7.183726692973418926e-02
-9.703287111720472480e-02
-1.213892702338645879e-01
-1.420647630011413198e-01
-1.568593242598955995e-01
-1.644137974312704087e-01
-1.643030738236317401e-01
-1.570197252990785386e-01
-1.438565641595844491e-01
-1.267071027889976054e-01
-1.078108078158504374e-01
-8.947464542576434587e-02
-7.380334261035768895e-02
-6.246810960381601191e-02
-5.653773755496859649e-02
-5.638778913536812709e-02
-6.169405083662497097e-02
-7.150663575040502873e-02
-8.439221344487757293e-02
-9.862475575245376047e-02
-1.124006365771334087e-01
-1.240523088440797089e-01
-1.322361548906766104e-01
-1.360741824781233622e-01
-1.352354383865293497e-01
-1.299505415596668989e-01
-1.209606861499406827e-01
-1.094099094457152282e-01
-9.669553590701884804e-02
-8.429585375534395797e-02
-7.359586539218759826e-02
-6.573127257375571686e-02
-6.146789208298073653e-02
-6.112888317759260226e-02
-6.457613352753949210e-02
-7.124563860488139500e-02
-8.023049017292981089e-02
-9.039986509237292467e-02
-1.005387383511360255e-01
-1.094912926145883286e-01
-1.162912850933367909e-01
-1.202648447895691003e-01
-1.210949754927888727e-01
-1.188419279998688266e-01
-1.139189692809100818e-01
-1.070282754869371494e-01
-9.906611366040532496e-02
-9.100966897161739955e-02
-8.379949944389640526e-02
-7.823153083179643086e-02
-7.487081677735608898e-02
-7.399624276221428154e-02
-7.558135576306330983e-02
-7.931205700335389186e-02
-8.463753875629351220e-02
-9.084708322974460737e-02
-9.716258790558840452e-02
-1.028352213315621155e-01
-1.072345674151995304e-01
-1.099199375487846103e-01
-1.106860134968884468e-01
-1.095782965012021687e-01
-1.068775625371989613e-01
-1.030562103217111530e-01
-9.871260802048348326e-02
-9.449193841012798467e-02
-9.100335932669945116e-02
-8.874342213807512314e-02
-8.803465169439933513e-02
