1.485976746328285804e-13
-4.003339606338678931e-12
-1.542195543193261731e-11
-3.279809733540584672e-11
-5.158591189627699107e-11
-6.140222141479160379e-11
-4.767370953581203594e-11
7.893138730441995098e-12
1.219428321856160733e-10
3.070490124301859409e-10
5.712652764536878045e-10
9.030231764346798687e-10
1.266915197471743680e-09
1.594603820170958910e-09
1.820227420426972346e-09
1.869881728901862535e-09
1.687877052944283482e-09
1.231740006012311543e-09
4.812588614677767199e-10
-5.375416397771017624e-10
-1.763659567234971822e-09
-3.076556172492035939e-09
-4.322952357182598447e-09
-5.302935301118490094e-09
-5.793275430470031101e-09
-5.553158903044063886e-09
-4.345144719277916495e-09
-1.966786087863793808e-09
1.735630562986544644e-09
6.832428021684358123e-09
1.329986002763172354e-08
2.099772258136513759e-08
2.966154258377107798e-08
3.890262089939811123e-08
4.820628262076464453e-08
5.697233102878530812e-08
6.454192608980648897e-08
7.024863943251158963e-08
7.346883660721520382e-08
7.368743796654065407e-08
7.056843225826412325e-08
6.400351461879792695e-08
5.417017806290400699e-08
4.156359873261672114e-08
2.701792233739363680e-08
1.169092735255772461e-08
-2.972150749343797362e-09
-1.530568152284201120e-08
-2.351882553934083831e-08
-2.581528719805251122e-08
-2.052939157864332203e-08
-6.280460007352894536e-09
1.788485224078824644e-08
5.235530880419013349e-08
9.684435519657539045e-08
1.503164758505579378e-07
2.109616120943131238e-07
2.762262664820633248e-07
3.429087489125957882e-07
4.073092480161284975e-07
4.654509120803487530e-07
5.133442910360022529e-07
5.472922932994232142e-07
5.642050397973133817e-07
5.619222358735246963e-07
5.394995010679020488e-07
4.974419566029361978e-07
4.378609929559550082e-07
3.645222685731634845e-07
2.827905197748029370e-07
1.994323838655668967e-07
1.223049181135542983e-07
5.991775115293691156e-08
2.089617679319366088e-08
1.337382854107377849e-08
4.434352847871252693e-08
1.190195253865118149e-07
2.402624778233144837e-07
4.080983652873566749e-07
6.193950592684856455e-07
8.677368993353929533e-07
1.143518478714662499e-06
1.434284951301684459e-06
1.725308737701823184e-06
2.000406683639955986e-06
2.242946657931404099e-06
2.436989773172252815e-06
2.568518211024716576e-06
2.626651191956266592e-06
2.604756662547590019e-06
2.501396376938106222e-06
2.320976755533252930e-06
2.074070058441106160e-06
1.777304690115830253e-06
1.452840908302897754e-06
1.127378271464958039e-06
8.307498567638737453e-07
5.941491171274158142e-07
4.480898231355413428e-07
4.202085874993165372e-07
5.330504563253244821e-07
8.020035753882398341e-07
1.233534289640394074e-06
1.823889049208236909e-06
2.558379361587315203e-06
3.411375130850619981e-06
4.347061865995846795e-06
5.320991970418023309e-06
6.282376358710190733e-06
7.177030106832617088e-06
7.950846017123885053e-06
8.553562085853933026e-06
8.942613760168258526e-06
9.086797035364593808e-06
8.969470473847468523e-06
8.591033005649235265e-06
7.970429587156605195e-06
7.145516287225629170e-06
6.172129616499813413e-06
5.121844076553803732e-06
4.078431240348996656e-06
3.133176576071670921e-06
2.379272819846924108e-06
1.905602965397243708e-06
1.790295241220462379e-06
2.094467705771695375e-06
2.856632185197171127e-06
4.088180633032551089e-06
5.770367352917617894e-06
7.853108668343293064e-06
1.025584125404195191e-05
1.287054797057921807e-05
1.556690763538337880e-05
1.819939414620200754e-05
2.061597730373383546e-05
2.266798424202999161e-05
2.422049313828477323e-05
2.516262774708485431e-05
2.541699591829521527e-05
2.494759422032994772e-05
2.376550954070347782e-05
2.193182768813817170e-05
1.955737221484967351e-05
1.679902852681888683e-05
1.385265735337197212e-05
1.094281267743372132e-05
8.309734139688071646e-06
6.194296727376572020e-06
4.821793114586423303e-06
4.385568638309691277e-06
5.031613885923625583e-06
6.845235045458003508e-06
9.840861450470728193e-06
1.395591404534328942e-05
1.904943272251970215e-05
2.490592854492427563e-05
3.124453145370804848e-05
3.773322827260036584e-05
4.400755412903359354e-05
4.969280216073883197e-05
5.442849356072386105e-05
5.789358695729304797e-05
5.983079830385401940e-05
6.006830197585708866e-05
5.853717111839182102e-05
5.528309398386664771e-05
5.047116120878851101e-05
4.438296155953719687e-05
3.740562023926921083e-05
3.001302884019067479e-05
2.273995961159805279e-05
1.615037604059943240e-05
1.080165757754605675e-05
7.206910660392973846e-06
5.797749470938064930e-06
6.890104062222274171e-06
1.065554505625169653e-05
1.710041374944183483e-05
2.605466315908639953e-05
3.717179734214067047e-05
4.994059344588526028e-05
6.370860759514807058e-05
7.771661669561858886e-05
9.114236932711532039e-05
1.031513037887639357e-04
1.129512819962590363e-04
1.198478933292794799e-04
1.232966876452059744e-04
1.229486282599269410e-04
1.186853156661818394e-04
1.106409873590864155e-04
9.920902195139631285e-05
8.503158388052920499e-05
6.897203994903223091e-05
5.207099897686221147e-05
3.548789798488180092e-05
2.043118270618222293e-05
8.081066849831832025e-06
-4.904383670388742018e-07
-4.396998355225167259e-06
-3.007688494557645409e-06
3.996172500402909583e-06
1.658159660159172328e-05
3.434555788976225712e-05
5.652011182136723697e-05
8.200202311051399612e-05
1.094063383393355005e-04
1.371416856158345801e-04
1.635035577600103883e-04
1.867803656080615636e-04
2.053659507598157893e-04
2.178714429474251733e-04
2.232289888441100676e-04
2.207799993154392312e-04
2.103412247148696344e-04
1.922430288340809925e-04
1.673357927695001484e-04
1.369622737500152717e-04
1.028959002968994868e-04
6.724724442392475963e-05
3.234312711865355356e-05
5.849072385211293984e-07
-2.570577718308445124e-05
-4.444429016436375168e-05
-5.393303133016228058e-05
-5.299391830429389969e-05
-4.107361125154044971e-05
-1.831310238741060804e-05
1.442482150171331557e-05
5.557425095864497851e-05
1.029321415091275188e-04
1.537696899009098899e-04
2.049841168251561989e-04
2.532828831225455968e-04
2.953898603461300727e-04
3.282609585086372931e-04
3.492954635324212772e-04
3.565289205883011184e-04
3.487939180713502986e-04
3.258365334593156504e-04
2.883785595985469672e-04
2.381186924056719685e-04
1.776695683741962961e-04
1.104316053504539411e-04
4.040887620239604229e-05
-2.802377221478974842e-05
-9.038935447035147293e-05
-1.423972397703268287e-04
-1.802334612633798346e-04
-2.008338381166281618e-04
-2.021211129749525114e-04
-1.831887783568094882e-04
-1.444169500238660204e-04
-8.750942722807490345e-05
-1.544574370152742646e-05
6.765264810569356535e-05
1.567373540836650310e-04
2.461188480263564707e-04
3.298076882098820899e-04
4.018913192821964710e-04
4.569233854799161919e-04
4.903005873041197706e-04
4.986017781804191838e-04
4.798653290584101866e-04
4.337837159629381639e-04
3.617988163074011042e-04
2.670871144775282049e-04
1.544308120304629418e-04
2.997810871913420997e-05
-9.909661315978907049e-05
-2.250149578651474672e-04
-3.398750536061416689e-04
-4.361616275354779685e-04
-5.072535010226385688e-04
-5.478951907473564526e-04
-5.546001782068687861e-04
-5.259564400576945522e-04
-4.628099788353248127e-04
-3.683090237333992928e-04
-2.477999382790011429e-04
-1.085752326517330530e-04
4.051626692540067677e-05
1.895775200152785772e-04
3.282615387230483693e-04
4.464245811866310548e-04
5.347939359446648565e-04
5.856073211055400855e-04
5.931809360499309351e-04
5.543660584871604657e-04
4.688597135954199148e-04
3.393430163880810846e-04
1.714309661053108806e-04
-2.657087819664330299e-05
-2.440949780125103714e-04
-4.689053550411009406e-04
-6.878241920106211273e-04
-8.875495672105447641e-04
-1.055514754595183232e-03
-1.180734789070750921e-03
-1.254584592493800110e-03
-1.271455205395551590e-03
-1.229240440319027050e-03
-1.129615431948387478e-03
-9.780806063169099687e-04
-7.837588072294182509e-04
-5.589489717684230840e-04
-3.184557050707411438e-04
-7.872954280099044586e-05
1.431336584551044463e-04
3.304746161268594189e-04
4.681666322811486110e-04
5.436549770931251285e-04
5.478698457395907552e-04
4.759486284226569202e-04
3.277131212197888568e-04
1.078612474786419523e-04
-1.741502044869085576e-04
-5.045360287924568988e-04
-8.659102655754117141e-04
-1.238275119616217591e-03
-1.600216847248455213e-03
-1.930238790412932941e-03
-2.208150162090009253e-03
-2.416422534427713990e-03
-2.541424761218375253e-03
-2.574451625176084682e-03
-2.512471755913439110e-03
-2.358535866132399888e-03
-2.121806195277060533e-03
-1.817191263860338645e-03
-1.464595066381639511e-03
-1.087815219726747870e-03
-7.131486434715584091e-04
-3.677844751532877697e-04
-7.808065015829579664e-05
1.321684032544207400e-04
2.433609999115933585e-04
2.415050878391778930e-04
1.193233511518572621e-04
-1.230362546581538095e-04
-4.777446836739774011e-04
-9.295234988648372679e-04
-1.456366456580830823e-03
-2.030721646155369316e-03
-2.621073983178678034e-03
-3.193839763603890155e-03
-3.715461676634362886e-03
-4.154575764601627433e-03
-4.484112640324782080e-03
-4.683194764394825113e-03
-4.738699954965685385e-03
-4.646378432498708341e-03
-4.411435691897599987e-03
-4.048525044167835055e-03
-3.581129988231194095e-03
-3.040355325739667238e-03
-2.463184873694691020e-03
-1.890300118789328557e-03
-1.363585731232304366e-03
-9.234724703258135031e-04
-6.062835363043691823e-04
-4.417558924169199316e-04
-4.509025143942898997e-04
-6.443650827948578172e-04
-1.021379952046586742e-03
-1.569444711271617042e-03
-2.264730298822250753e-03
-3.073236977531807693e-03
-3.952644339683060275e-03
-4.854759087019398789e-03
-5.728422473326367191e-03
-6.522705137452929416e-03
-7.190192757767903745e-03
-7.690153675724381750e-03
-7.991380375859965732e-03
-8.074510987712979135e-03
-7.933664119481853225e-03
-7.577259288115980110e-03
-7.027943485440740594e-03
-6.321599577301621233e-03
-5.505470576240393231e-03
-4.635491994141998154e-03
-3.772978418298904377e-03
-2.980856876771358251e-03
-2.319674875097953171e-03
-1.843632854255831000e-03
-1.596897230187487894e-03
-1.610440290979277007e-03
-1.899627154372531554e-03
-2.462728897133841573e-03
-3.280487034560968136e-03
-4.316790825515003614e-03
-5.520459202520085033e-03
-6.828047797169501699e-03
-8.167533037175284810e-03
-9.462664230445620023e-03
-1.063772499367814789e-02
-1.162241092887729595e-02
-1.235651376198174459e-02
-1.279410490190297824e-02
-1.290693394336874661e-02
-1.268679916495506557e-02
-1.214670557886199376e-02
-1.132069820001128588e-02
-1.026233980715777344e-02
-9.041888563606355692e-03
-7.742316066771309790e-03
-6.454385217262947200e-03
-5.271074422787198205e-03
-4.281685521419412339e-03
-3.566003523494147651e-03
-3.188884348035997927e-03
-3.195630907108511221e-03
-3.608478469443900886e-03
-4.424449020579663411e-03
-5.614754592265334444e-03
-7.125835807946249469e-03
-8.882019766314730100e-03
-1.078967715062423456e-02
-1.274265872177318681e-02
-1.462870265272117783e-02
-1.633643250299311039e-02
-1.776251613588560041e-02
-1.881853232969354917e-02
-1.943709662762701379e-02
-1.957683155732699298e-02
-1.922582745901971896e-02
-1.840332584898543913e-02
-1.715946257571012573e-02
-1.557302706379807937e-02
-1.374731932482019421e-02
-1.180431046534162476e-02
-9.877427130708216207e-03
-8.103378039269359956e-03
-6.613514829424481378e-03
-5.525264364607199684e-03
-4.934181656890131856e-03
-4.907150013439619957e-03
-5.477198139905443963e-03
-6.640315411500996405e-03
-8.354531024806186729e-03
-1.054138677991283898e-02
-1.308978478625397700e-02
-1.586203964642996997e-02
-1.870181899142004181e-02
-2.144352622956307436e-02
-2.392257365878083103e-02
-2.598592018116409330e-02
-2.750221136595825538e-02
-2.837086402858952222e-02
-2.852948377339560582e-02
-2.795909046082161592e-02
-2.668674905140637488e-02
-2.478535506678398309e-02
-2.237049643761880938e-02
-1.959449625523333391e-02
-1.663792295790836318e-02
-1.369902410154057865e-02
-1.098168595277727692e-02
-8.682633922990762310e-03
-6.978660039076252028e-03
-6.014687514248997016e-03
-5.893456070314634365e-03
-6.667534953645190728e-03
-8.334246985256789364e-03
-1.083392264626272840e-02
-1.405170717152405893e-02
-1.782292724848796514e-02
-2.194180010448401955e-02
-2.617305011184415178e-02
-3.026580075437973472e-02
-3.396894522042871734e-02
-3.704707916980250204e-02
-3.929601244791042225e-02
-4.055686916840096218e-02
-4.072783965596901701e-02
-3.977276209077566793e-02
-3.772588111209528028e-02
-3.469234635669533190e-02
-3.084426420800383262e-02
-2.641238643090325702e-02
-2.167379388135607862e-02
-1.693619542709324383e-02
-1.251969474216645985e-02
-8.737065860059161498e-03
-5.873708829547956423e-03
-4.168519949165871638e-03
-3.796900491880510903e-03
-4.857041893105732040e-03
-7.360466612142837692e-03
-1.122757965185332794e-02
-1.628870732171749935e-02
-2.229078238785001803e-02
-2.890949604574019616e-02
-3.576639699299717645e-02
-4.245009665236140761e-02
-4.854045726412650752e-02
-5.363441434079196934e-02
-5.737193227189245348e-02
-5.946052324469288525e-02
-5.969678207731154290e-02
-5.798350464579589414e-02
-5.434116183015551965e-02
-4.891278513619170404e-02
-4.196167034873254931e-02
-3.386170353530756905e-02
-2.508053760648119510e-02
-1.615627385971316402e-02
-7.668706666949126963e-03
-2.065467990695154144e-04
5.667672331317756551e-03
9.453099622215849554e-03
1.074447643780930377e-02
9.262456100524322014e-03
4.878460042227313054e-03
-2.367569486677893222e-03
-1.225782816394818675e-02
-2.439661201931996384e-02
-3.821999718504397875e-02
-5.301513418406401945e-02
-6.794852738272465220e-02
-8.210216235714296040e-02
-9.451588319862279375e-02
-1.042340347623553765e-01
-1.103540944026961124e-01
-1.120748420392150002e-01
-1.087415684272085292e-01
-9.988590476603464996e-02
-8.525807031271163960e-02
-6.484966976133266225e-02
-3.890561277782587923e-02
-7.924252793699486028e-03
2.735457592898665052e-02
6.597333467530396012e-02
1.067914773712217852e-01
1.485296080737162072e-01
1.898211382146245130e-01
2.292690772848900715e-01
2.655053017265026072e-01
2.972494912298395686e-01
3.233649084392405393e-01
3.429083291843953440e-01
3.551716997288457134e-01
3.597134917696090950e-01
3.563782251720309935e-01
3.453032066572846448e-01
3.269121602645538860e-01
3.018960694180419235e-01
2.711821777327250715e-01
2.358926732976994178e-01
1.972950796001790574e-01
1.567467696213500350e-01
1.156362881197942338e-01
7.532429759861926366e-02
3.708694994733158223e-02
2.064330270652778472e-03
-2.878366869688754603e-02
-5.471208758294206914e-02
-7.521480094340986244e-02
-9.003668664239194985e-02
-9.917377445142452896e-02
-1.028616899335844659e-01
-1.015532878101396558e-01
-9.588688986013262083e-02
-8.664697948384054993e-02
-7.471953694581615069e-02
-6.104441056026823492e-02
-4.656720079380187449e-02
-3.219308498875159824e-02
-1.874483551534109754e-02
-6.926995851041861142e-03
2.702204601579684656e-03
9.750072360870432747e-03
1.399918621870652712e-02
1.540754637498032049e-02
1.409954448139523822e-02
1.034863467283333657e-02
4.552995115092299191e-03
-2.794203969860614874e-03
-1.113808188538911031e-02
-1.989691490848017816e-02
-2.849661743639336428e-02
-3.640296482377856219e-02
-4.314988564244649077e-02
-4.836243639123147947e-02
-5.177342368649402032e-02
-5.323303610879386721e-02
-5.271126622137513318e-02
-5.029331876021998077e-02
-4.616859004977122427e-02
-4.061414536555946891e-02
-3.397389720387152673e-02
-2.663488481585658818e-02
-1.900216517051771942e-02
-1.147384439242724388e-02
-4.417708739703778489e-03
1.849237774850178697e-03
7.077244225845187066e-03
1.109548449723844581e-02
1.381843662072320192e-02
1.524680827356161492e-02
1.546317625128009951e-02
1.462281521904364168e-02
1.294045948294817588e-02
1.067395633310454402e-02
8.105919934097583629e-03
5.524573827196279860e-03
3.204975913208662867e-03
1.391753955007052953e-03
2.843488633029839186e-04
2.557706798527176596e-05
6.940949652671170225e-04
2.301093147910096646e-03
4.791281549700155719e-03
8.047965570626461687e-03
1.190177291141489985e-02
1.614238500261953174e-02
2.053246702310437127e-02
2.482288435736570292e-02
2.876824596198224171e-02
3.214182704857992262e-02
3.474899243702156415e-02
3.643836150171398530e-02
3.711011727844159419e-02
3.672105449472382044e-02
3.528617158485731348e-02
3.287682672108031140e-02
2.961568421441189772e-02
2.566886318844687626e-02
2.123585438489869123e-02
1.653788518926279164e-02
1.180548163691951327e-02
7.265996731011756596e-03
3.131847164711138928e-03
-4.098711790463722580e-04
-3.205828828698631828e-03
-5.142549958727049737e-03
-6.149883195136024612e-03
-6.201769206304497996e-03
-5.314388649959096711e-03
-3.541932743887068503e-03
-9.703764104216854687e-04
2.290257379276823893e-03
6.114579532823149512e-03
1.037086486223598274e-02
1.492983552659808179e-02
1.967264440375994169e-02
2.449757977465896741e-02
2.932511549598178918e-02
3.410105404746484326e-02
3.879764483416225235e-02
4.341269805174822333e-02
4.796684620571178836e-02
5.249922279246502232e-02
5.706192354880446765e-02
6.171368456342335440e-02
6.651324968406159555e-02
7.151290560287533460e-02
7.675263713829244550e-02
8.225530022083187009e-02
8.802313034920954127e-02
9.403580550080049838e-02
1.002501718196199959e-01
1.066016251581784063e-01
1.130070295887982690e-01
1.193689523875403058e-01
1.255809102672421906e-01
1.315332588898299182e-01
1.371193205677491422e-01
1.422413355390970691e-01
1.468158402209210067e-01
1.507781197963980468e-01
1.540854489852961640e-01
1.567189190923640729e-01
1.586837457264045348e-01
1.600080533418677120e-01
1.607402333116038640e-01
1.609450651210686256e-01
1.606988695059100858e-01
1.600840230108955264e-01
1.591832018952751837e-01
1.580737373929954614e-01
1.568224533908927631e-01
1.554813227324614022e-01
1.540842221005666868e-01
1.526449916280180064e-01
1.511569190227991522e-01
1.495936747030563452e-01
1.479116302928360216e-01
1.460534037288979958e-01
1.439523959735076741e-01
1.415380215838086264e-01
1.387412920769901248e-01
1.355003896298225263e-01
1.317658703147088495e-01
1.275051605773782626e-01
1.227060559546972879e-01
1.173789944489731646e-01
1.115579541235814653e-01
1.052999104937444863e-01
9.868287880983234173e-02
9.180265363973665049e-02
8.476843804978403951e-02
7.769762208306743578e-02
7.071002138341911381e-02
6.392191843810993146e-02
5.744025953591305050e-02
5.135734951190461944e-02
4.574635476601030676e-02
4.065787481931474462e-02
3.611777733538676372e-02
3.212641492315455177e-02
2.865925916859208417e-02
2.566890314589254096e-02
2.308830327669302365e-02
2.083505969427814145e-02
1.881647526932783351e-02
1.693509080699424560e-02
1.509436968932965917e-02
1.320420086366828893e-02
1.118590441824306170e-02
8.976457852898994672e-03
6.531711355014391089e-03
3.828423525547265931e-03
8.650213336145180613e-04
-2.338935161245228427e-03
-5.744525900996694245e-03
-9.296352176831263955e-03
-1.292633341426377598e-02
-1.655817573212288105e-02
-2.011223324753342451e-02
-2.351046482616841321e-02
-2.668118883447670453e-02
-2.956335592217757338e-02
-3.211009387561584300e-02
-3.429132657688833269e-02
-3.609532820565201222e-02
-3.752914008445265570e-02
-3.861784716951387891e-02
-3.940277967212163501e-02
-3.993876873122646082e-02
-4.029063966430982552e-02
-4.052916900499525799e-02
-4.072675987065108028e-02
-4.095310281498087956e-02
-4.127108562515612727e-02
-4.173319600820895453e-02
-4.237862722126530673e-02
-4.323125071262310520e-02
-4.429856461622378588e-02
-4.557166604613827054e-02
-4.702623219493892726e-02
-4.862443424627658356e-02
-5.031765246707376599e-02
-5.204981405528649741e-02
-5.376113994609329344e-02
-5.539206480553628825e-02
-5.688708710480042813e-02
-5.819831360914200225e-02
-5.928848424471137857e-02
-6.013329768740553055e-02
-6.072290285820337863e-02
-6.106247399011555110e-02
-6.117184380704861202e-02
-6.108422722172453939e-02
-6.084412310020229087e-02
-6.050453104963314510e-02
-6.012366060642587717e-02
-5.976133962627650648e-02
-5.947534513228015796e-02
-5.931788264637078562e-02
-5.933242910690146588e-02
-5.955113045184771969e-02
-5.999290962274417965e-02
-6.066239615385902312e-02
-6.154973755603842384e-02
-6.263129842378424572e-02
-6.387119896378899708e-02
-6.522359372586071513e-02
-6.663554672750328367e-02
-6.805032368650985874e-02
-6.941089761316000806e-02
-7.066345221319464409e-02
-7.176066879924507258e-02
-7.266459685391171708e-02
-7.334893473498389771e-02
-7.380058395930974569e-02
-7.402038548118719530e-02
-7.402299673076941089e-02
-7.383592087497871381e-02
-7.349775141905118270e-02
-7.305574295369704485e-02
-7.256285950158186671e-02
-7.207448319541283344e-02
-7.164498600581895027e-02
-7.132437476207788285e-02
-7.115521438921047770e-02
-7.117001637643836920e-02
-7.138925035124639440e-02
-7.182009781433840168e-02
-7.245602120538513491e-02
-7.327717126999254427e-02
-7.425160424933205383e-02
-7.533723098417950681e-02
-7.648437553245371334e-02
-7.763878411216602882e-02
-7.874489842150655949e-02
-7.974919210004402514e-02
-8.060336640027644661e-02
-8.126721098374936614e-02
-8.171095758939121712e-02
-8.191698675064415514e-02
-8.188078862823923443e-02
-8.161112586863762675e-02
-8.112939626758956801e-02
-8.046824263662319399e-02
-7.966950371811004628e-02
-7.878164017452497780e-02
-7.785680119055841952e-02
-7.694771803506032792e-02
-7.610461983453881141e-02
-7.537236311302011882e-02
-7.478795089220283132e-02
-7.437859007967462244e-02
-7.416039954296460568e-02
-7.413783785430272388e-02
-7.430387215387129762e-02
-7.464086095942409904e-02
-7.512207730125573801e-02
-7.571375723672016389e-02
-7.637752541235945380e-02
-7.707302605182866917e-02
-7.776057612945239117e-02
-7.840365827990425363e-02
-7.897108421084364505e-02
-7.943868410504983935e-02
-7.979041214557963668e-02
-8.001880043485423699e-02
-8.012474050801231262e-02
-8.011662002545667793e-02
-8.000888884711572502e-02
-7.982017028645430057e-02
-7.957106687995160743e-02
-7.928183330666449535e-02
-7.897010006862764664e-02
-7.864882962562262658e-02
-7.832467152190811244e-02
-7.799685568129888225e-02
-7.765672510336077417e-02
-7.728796315110914028e-02
-7.686751966422669669e-02
-7.636718752678160749e-02
-7.575573102263268022e-02
-7.500142266888833176e-02
-7.407480970291324684e-02
-7.295150771485353625e-02
-7.161480894691875376e-02
-7.005789788718619349e-02
-6.828548674865247969e-02
-6.631471758937344807e-02
-6.417522411069563615e-02
-6.190830176576825328e-02
-5.956519618673726535e-02
-5.720458305605570504e-02
-5.488937297996113185e-02
-5.268302855642037485e-02
-5.064562358712396128e-02
-4.882990296918648943e-02
-4.727761374438659708e-02
-4.601637158145436418e-02
-4.505730246712124493e-02
-4.439365735824989112e-02
-4.400054041300602986e-02
-4.383582227191012287e-02
-4.384223304180068226e-02
-4.395054988531131579e-02
-4.408371688248378245e-02
-4.416166519034431942e-02
-4.410654459963819773e-02
-4.384803760175526310e-02
-4.332840736579304103e-02
-4.250693375047108480e-02
-4.136341727451223887e-02
-3.990047905678587720e-02
-3.814445285090510562e-02
-3.614474958034655933e-02
-3.397167050096482760e-02
-3.171274622192693515e-02
-2.946777896426360996e-02
-2.734285798798562206e-02
-2.544369665804964084e-02
-2.386869857741626827e-02
-2.270219475143125942e-02
-2.200830090234907194e-02
-2.182582207954548298e-02
-2.216458110936191106e-02
-2.300347012046371348e-02
-2.429042472931451993e-02
-2.594440363943956163e-02
-2.785932975724787763e-02
-2.990981988450809939e-02
-3.195840715372587348e-02
-3.386385176870468361e-02
-3.549004870139797069e-02
-3.671498243510096932e-02
-3.743915332421426240e-02
-3.759291078143503495e-02
-3.714217577306392487e-02
-3.609211762119288180e-02
-3.448846376490608684e-02
-3.241625993077736079e-02
-2.999605416315595519e-02
-2.737764206783981774e-02
-2.473167223576027557e-02
-2.223955977832035857e-02
-2.008228214029150055e-02
-1.842872607995565959e-02
-1.742431053059886187e-02
-1.718062205876890597e-02
-1.776676516198136616e-02
-1.920304932730007921e-02
-2.145751165860612653e-02
-2.444561426327273093e-02
-2.803326802209876734e-02
-3.204312964307023948e-02
-3.626390929894442172e-02
-4.046222447251657944e-02
-4.439635519268170238e-02
-4.783110847263193771e-02
-5.055289628965463355e-02
-5.238407991211034564e-02
-5.319563913878221084e-02
-5.291729007928952511e-02
-5.154429760134103533e-02
-4.914040346607075060e-02
-4.583650942307618270e-02
-4.182500462490360699e-02
-3.734989432666202536e-02
-3.269315617893313319e-02
-2.815800503697711565e-02
-2.404997078634473970e-02
-2.065687127253843652e-02
-1.822888130390313763e-02
-1.695994916050806017e-02
-1.697178823575168707e-02
-1.830157177103027347e-02
-2.089428603753003960e-02
-2.460045912070837199e-02
-2.917969043936540288e-02
-3.431007547506201988e-02
-3.960326918411143093e-02
-4.462458021616846904e-02
-4.891715730982980348e-02
-5.202903938819419816e-02
-5.354161081937159478e-02
-5.309784875442162544e-02
-5.042868269219383942e-02
-4.537581457810963698e-02
-3.790947307168793246e-02
-2.813979456501734117e-02
-1.632082698785885036e-02
-2.846526343639249699e-03
1.176145871306140574e-02
2.687396423157918657e-02
4.178174117526668035e-02
5.572899159810428688e-02
6.795147303363502367e-02
7.771731271223625281e-02
8.436844349958566580e-02
8.736045024105226764e-02
8.629860892377190507e-02
8.096801594624322695e-02
7.135593815495500092e-02
5.766485708406757921e-02
4.031511749817895396e-02
1.993659986100616149e-02
-2.650606919410152841e-03
-2.646598108394061788e-02
-5.040767755322803079e-02
-7.329933694344444028e-02
-9.394251107746856566e-02
-1.111722709699588529e-01
-1.239133304548512560e-01
-1.312339191084717915e-01
-1.323946799168876087e-01
-1.268900507938674760e-01
-1.144799077025266953e-01
-9.520968620510483760e-02
-6.941773707527754134e-02
-3.772928318443854317e-02
-1.036998667675132326e-03
3.953110631876798065e-02
8.265517528341538578e-02
1.268764719830362542e-01
1.706574384004432288e-01
2.124460861977863213e-01
2.507417272393761554e-01
2.841589611085747480e-01
3.114869043446034658e-01
3.317408644495084546e-01
3.442040210029737035e-01
3.484571583956795338e-01
3.443950749865136163e-01
3.322289423666588970e-01
3.124745722777230172e-01
2.859272326356367966e-01
2.536243028423252333e-01
2.167976389924929914e-01
1.768180023598375505e-01
1.351342654255922870e-01
9.321033111740838206e-02
5.246277263795192519e-02
1.420212110762506669e-02
-2.041949821060765752e-02
-5.045203942776146228e-02
-7.518064940835766929e-02
-9.414690952289445081e-02
-1.071575091612237823e-01
-1.142802930112247484e-01
-1.158282528079548068e-01
-1.123326207838776930e-01
-1.045067361927365102e-01
-9.320277305761293096e-02
-7.936371646533815771e-02
-6.397314345322509255e-02
-4.800539644673960937e-02
-3.237863410349265531e-02
-1.791301468934562713e-02
-5.295926049156175937e-03
4.944255015874301704e-03
1.245488769591955938e-02
1.706582330889361634e-02
1.878627995613464663e-02
1.779244145463713261e-02
1.440685529642298478e-02
9.071100218635401793e-03
2.313496980362773989e-03
-5.286167103666535895e-03
-1.313284649232973958e-02
-2.065135704146942031e-02
-2.731852681222500176e-02
-3.269073759619248870e-02
-3.642553821692338933e-02
-3.829639352749670406e-02
-3.820005391522209720e-02
-3.615646437000933494e-02
-3.230155489209785707e-02
-2.687364196862909033e-02
-2.019450322629345179e-02
-1.264644745975315905e-02
-4.646877480007399058e-03
3.378073196243724062e-03
1.101925857809123513e-02
1.790812168817920713e-02
2.373688794201614730e-02
2.827430715362526728e-02
3.137620013929730972e-02
3.299039723178753131e-02
3.315599925880566290e-02
3.199722621611787721e-02
2.971242617318526832e-02
2.655907954628659168e-02
2.283583837515588966e-02
1.886277638165351558e-02
1.496108806977327309e-02
1.143346254612006424e-02
8.546273587936982150e-03
6.514579145360199948e-03
5.490721779252139868e-03
5.557080403731874153e-03
6.723258452515969326e-03
8.927721047870170942e-03
1.204362992348749495e-02
1.588838533952091625e-02
2.023618228035314881e-02
2.483273440671428592e-02
2.941122128754429521e-02
3.370847577590813104e-02
3.748044975961260100e-02
4.051607400485278399e-02
4.264875522797412916e-02
4.376492126372848179e-02
4.380922164367370003e-02
4.278620375735690817e-02
4.075849994696938844e-02
3.784176621766033310e-02
3.419679597180985686e-02
3.001938283068648905e-02
2.552861670892849280e-02
2.095436221801957877e-02
1.652468570915307036e-02
1.245396764760672674e-02
8.932364258954446357e-03
6.117172368851770022e-03
4.126512468068617434e-03
3.035586736812176216e-03
2.875601484571223190e-03
3.635278010747955511e-03
5.264722057825198080e-03
7.681289177640281823e-03
1.077697849394103000e-02
1.442681616361349804e-02
1.849765522830240649e-02
2.285682113478898492e-02
2.738007050126947325e-02
3.195840064480304221e-02
3.650334347339715541e-02
4.095049227088315424e-02
4.526113576900736568e-02
4.942200223046545882e-02
5.344323876549897379e-02
5.735486012149031837e-02
6.120199044674124594e-02
6.503928584655287171e-02
6.892496194328559533e-02
7.291485766652537615e-02
7.705694496575815622e-02
8.138664647824067622e-02
8.592325336434848693e-02
9.066764920324663080e-02
9.560144895947782218e-02
1.006875615629349019e-01
1.058720872766489990e-01
1.110873730141817978e-01
1.162559757286812517e-01
1.212952301549642536e-01
1.261220856909383847e-01
1.306578691494887368e-01
1.348326456380356531e-01
1.385888869850595007e-01
1.418842127854882951e-01
1.446930392748398408e-01
1.470070504724616256e-01
1.488344891200078512e-01
1.501983459166434387e-01
1.511335994100460600e-01
1.516837205670237831e-01
1.518967019378590355e-01
1.518208986328309917e-01
1.515009756829809595e-01
1.509742437967689088e-01
1.502676341281704298e-01
1.493955152750790771e-01
1.483584953738473211e-01
1.471432835091431857e-01
1.457236122071937090e-01
1.440621514259987634e-01
1.421132789295957710e-01
1.398265163567752045e-01
1.371503982311616798e-01
1.340365149900118735e-01
1.304434623006556770e-01
1.263404377892293762e-01
1.217102517118247157e-01
1.165515584369853086e-01
1.108801674454656105e-01
1.047293529716555316e-01
9.814914564912219364e-02
9.120465393020010803e-02
8.397352308582220481e-02
7.654269171286494367e-02
6.900464660031670194e-02
6.145340413860450601e-02
5.398045892174993532e-02
4.667093700874295342e-02
3.960017351917982653e-02
3.283090279672160050e-02
2.641120711523515033e-02
2.037331950150291643e-02
1.473332126685260313e-02
9.491718909593271913e-03
4.634831718853078472e-03
1.368741660692118940e-04
-4.037421360437689483e-03
-7.929823290400669564e-03
-1.158545783985155328e-02
-1.504970286913533475e-02
-1.836530642624726109e-02
-2.156989533379005675e-02
-2.469400688208809105e-02
-2.775973721887561516e-02
-3.078005590040003986e-02
-3.375879065286082475e-02
-3.669124255078978075e-02
-3.956535244267571361e-02
-4.236330701559377215e-02
-4.506344931359118622e-02
-4.764234501639416641e-02
-5.007685289158729514e-02
-5.234605542114355303e-02
-5.443292263413779947e-02
-5.632560722660149427e-02
-5.801830003584149131e-02
-5.951160948805045425e-02
-6.081246427377077352e-02
-6.193357251882978393e-02
-6.289250103332323649e-02
-6.371046248500585041e-02
-6.441091542737088782e-02
-6.501809062640355463e-02
-6.555555714355598695e-02
-6.604493316903446709e-02
-6.650483061968603948e-02
-6.695010062132650264e-02
-6.739142064835262902e-02
-6.783523574634560405e-02
-6.828403785112002744e-02
-6.873694105029032331e-02
-6.919048850051616462e-02
-6.963961036046424635e-02
-7.007864250819456631e-02
-7.050231368805487397e-02
-7.090661405686878027e-02
-7.128947033085331064e-02
-7.165117089462436084e-02
-7.199450662864749495e-02
-7.232461839883483345e-02
-7.264856762916642452e-02
-7.297467064177445839e-02
-7.331165819610298284e-02
-7.366773741005780418e-02
-7.404964277595919853e-02
-7.446176533090069494e-02
-7.490544424907136234e-02
-7.537849312203619145e-02
-7.587501525782081035e-02
-7.638553951952062326e-02
-7.689748223215797651e-02
-7.739591384968702581e-02
-7.786458288938512273e-02
-7.828712681912158855e-02
-7.864838137719377953e-02
-7.893568816776015684e-02
-7.914009609597036365e-02
-7.925735594440298792e-02
-7.928861905273586197e-02
-7.924076988355911733e-02
-7.912634723692893446e-02
-7.896303804523466252e-02
-7.877275922256804508e-02
-7.858037454188077087e-02
-7.841212263086544398e-02
-7.829385682237234578e-02
-7.824921560728165248e-02
-7.829785242835901604e-02
-7.845385456993407558e-02
-7.872447243842468911e-02
-7.910926298158905967e-02
-7.959972543330141870e-02
-8.017947534040412161e-02
-8.082496633402340425e-02
-8.150673055339716089e-02
-8.219107090682178929e-02
-8.284210407323135128e-02
-8.342402484281549735e-02
-8.390344244282499364e-02
-8.425162928393491180e-02
-8.444652341208616630e-02
-8.447433798599408850e-02
-8.433065383644228197e-02
-8.402090348908906881e-02
-8.356019468458561472e-02
-8.297246624751500321e-02
-8.228901574615204995e-02
-8.154648386157577200e-02
-8.078442131081356448e-02
-8.004259767568500106e-02
-7.935823478091129368e-02
-7.876335866762244897e-02
-7.828246223679256877e-02
-7.793065507432278549e-02
-7.771244862756557237e-02
-7.762128491266209740e-02
-7.763986810289509599e-02
-7.774130345693901212e-02
-7.789099091761884919e-02
-7.804916499502544125e-02
-7.817392244233381526e-02
-7.822453818324151542e-02
-7.816484128306144807e-02
-7.796640884090336177e-02
-7.761133805977044053e-02
-7.709437596589169273e-02
-7.642422146656600856e-02
-7.562386405743831697e-02
-7.472988454073660469e-02
-7.379071197718238551e-02
-7.286390332242932699e-02
-7.201258302829585678e-02
-7.130124452556810266e-02
-7.079116919375789962e-02
-7.053575723238317274e-02
-7.057608538542171905e-02
-7.093700684908721410e-02
-7.162408775179537890e-02
-7.262163309801566990e-02
-7.389199489364485507e-02
-7.537627929766821389e-02
-7.699648297178547651e-02
-7.865899599264192243e-02
-8.025931611465235427e-02
-8.168773269774831647e-02
-8.283566416195502213e-02
-8.360227583956680864e-02
-8.390096991528134263e-02
-8.366532903199136451e-02
-8.285411153652288974e-02
-8.145493958095824383e-02
-7.948638921351212916e-02
-7.699828108743249355e-02
-7.407007638713877795e-02
-7.080739883579803551e-02
-6.733682318576281189e-02
-6.379918574546442067e-02
-6.034177589705461142e-02
-5.710985193742189325e-02
-5.423798397265226778e-02
-5.184175636598548076e-02
-5.001035921506321452e-02
-4.880056170788472925e-02
-4.823249106007217873e-02
-4.828754224011315432e-02
-4.890862119250289491e-02
-5.000278460343552528e-02
-5.144619074434541445e-02
-5.309112763588905853e-02
-5.477474614605511161e-02
-5.632900576185397717e-02
-5.759124785034650668e-02
-5.841475207641440986e-02
-5.867861117861188081e-02
-5.829627999989425019e-02
-5.722221681087723277e-02
-5.545613574269480511e-02
-5.304452380377207982e-02
-5.007923683358918993e-02
-4.669316680613296716e-02
-4.305315735760766732e-02
-3.935052392268772320e-02
-3.578969787226844029e-02
-3.257564991580735175e-02
-2.990084701016866922e-02
-2.793255199804719341e-02
-2.680128091976145821e-02
-2.659118762533180247e-02
-2.733304993312869052e-02
-2.900039051335605300e-02
-3.150908622233340034e-02
-3.472061164997230359e-02
-3.844883830883428361e-02
-4.247008368481083873e-02
-4.653588829364273954e-02
-5.038780797639259845e-02
-5.377335570247071539e-02
-5.646212290241766490e-02
-5.826106317584426458e-02
-5.902793600965818011e-02
-5.868198623603648051e-02
-5.721107360049822177e-02
-5.467465986940987788e-02
-5.120229813046586753e-02
-4.698753733294159379e-02
-4.227743936233211569e-02
-3.735818886738536543e-02
-3.253754038659471132e-02
-2.812507605066724009e-02
-2.441142490533422874e-02
-2.164770890751983173e-02
-2.002652155135513368e-02
-1.966570771536102491e-02
-2.059609674906574817e-02
-2.275414940360160482e-02
-2.598022140117024065e-02
-3.002283542175493078e-02
-3.454900559572106344e-02
-3.916029375373989568e-02
-4.341391571497554835e-02
-4.684788054656796596e-02
-4.900885674321837915e-02
-4.948123558426414936e-02
-4.791571912082049495e-02
-4.405570970644597656e-02
-3.775982619147167513e-02
-2.901901963545090377e-02
-1.796700371556947395e-02
-4.883041413289603352e-03
9.813475763743929534e-03
2.557677708056479635e-02
4.175644431877196389e-02
5.762631406987891308e-02
7.241930071709973271e-02
8.536650577060495015e-02
9.573867165751817621e-02
1.028878272789486986e-01
1.062868733822878720e-01
1.055648771443321587e-01
1.005359898944907376e-01
9.122016526492214561e-02
7.785422625707612287e-02
6.089229142398351613e-02
4.099510003125180629e-02
1.900834638158940479e-02
-4.069285155290858907e-03
-2.712713180350627071e-02
-4.899084810092609737e-02
-6.847579261317511545e-02
-8.444298666649152629e-02
-9.585492440537672632e-02
-1.018284492555315279e-01
-1.016819913845743578e-01
-9.497468221301730296e-02
-8.153521680575405439e-02
-6.147880595342373328e-02
-3.521112463048003960e-02
-3.418793518447346517e-03
3.295340624621739822e-02
7.273772245881192366e-02
1.145895357640880907e-01
1.570423300206245376e-01
1.985690207057533574e-01
2.376467955914933761e-01
2.728224256570809803e-01
3.027749604419933682e-01
3.263728335319724949e-01
3.427226656184562681e-01
3.512074515213822745e-01
3.515123334397648458e-01
3.436367689369834721e-01
3.278925676862986527e-01
3.048879612700184927e-01
2.754985499868161658e-01
2.408266045625398200e-01
2.021507565832083575e-01
1.608685611615685851e-01
1.184347363754259669e-01
7.629806089793431112e-02
3.583993610393207407e-02
-1.682508096444503519e-03
-3.518615487653314888e-02
-6.380227927970762158e-02
-8.690585784541667025e-02
-1.041326849135561089e-01
-1.153838001708955285e-01
-1.208173741257945882e-01
-1.208288198142465769e-01
-1.160204684372714151e-01
-1.071626347178381705e-01
-9.514828080866849502e-02
-8.094374758227886046e-02
-6.553814795897919265e-02
-4.989400505146222159e-02
-3.490157195641778454e-02
-2.133900101373127287e-02
-9.840155485860105355e-03
-8.713984804945880272e-04
5.281820726735323400e-03
8.518305252023815333e-03
8.914636376776002846e-03
6.709657783531360400e-03
2.281140515574485959e-03
-3.883778541386894573e-03
-1.122251962863055584e-02
-1.913331753658845460e-02
-2.701174006889557958e-02
-3.428546244874142168e-02
-4.044546815561369385e-02
-4.507211651440073963e-02
-4.785486344920290847e-02
-4.860482257239186893e-02
-4.725978502720091373e-02
-4.388175330146582703e-02
-3.864746182029130117e-02
-3.183273282559148654e-02
-2.379183002778020861e-02
-1.493320927524146788e-02
-5.693214090847588393e-03
3.490680892176079454e-03
1.220551378279262182e-02
2.008592805444804966e-02
2.683347935787128505e-02
3.223118929354016476e-02
3.615269204534524855e-02
3.856565900167088085e-02
3.952953144732988811e-02
3.918792177796490833e-02
3.775634103277097225e-02
3.550615850249341787e-02
3.274588527518108860e-02
2.980098901928590963e-02
2.699348785442119356e-02
2.462253715413913191e-02
2.294711902181250859e-02
2.217177880103561594e-02
2.243613801648674383e-02
2.380866311316187645e-02
2.628490026383149131e-02
2.979011486764804664e-02
3.418601634273402134e-02
3.928101931876551434e-02
4.484330375594958173e-02
5.061579868158888607e-02
5.633213362285150599e-02
6.173258087503091102e-02
6.657904982537884986e-02
7.066828699565173844e-02
7.384257489835899246e-02
7.599739904042415728e-02
7.708575350713331442e-02
7.711896860733497006e-02
7.616415561229067377e-02
7.433856115544816567e-02
7.180129585177810747e-02
6.874303877291033926e-02
6.537441460811456440e-02
6.191378946453950094e-02
5.857523316650222606e-02
5.555735219566926980e-02
5.303361277373200289e-02
5.114465457363755879e-02
4.999295102146690539e-02
4.964001191632054499e-02
5.010615878598844580e-02
5.137274331415867673e-02
5.338653428715167681e-02
5.606587691109893301e-02
5.930813704754579058e-02
6.299788623027259560e-02
6.701526346484737440e-02
7.124396660672066561e-02
7.557837706059343519e-02
7.992940195552890315e-02
8.422872176659056132e-02
8.843125066881610263e-02
9.251574396932481237e-02
9.648361281703440873e-02
1.003561232860997465e-01
1.041702574024872263e-01
1.079735920672818816e-01
1.118186035619264940e-01
1.157568281394400350e-01
1.198333025107599231e-01
1.240816733261704413e-01
1.285203051385568618e-01
1.331496367549162840e-01
1.379509419226793432e-01
1.428865487873199336e-01
1.479014704170815153e-01
1.529263025701763368e-01
1.578811611707135187e-01
1.626803656566586098e-01
1.672375295281819108e-01
1.714706984558083680e-01
1.753071799208223702e-01
1.786877359462746284e-01
1.815698592721515237e-01
1.839299200826199909e-01
1.857640499154148417e-01
1.870877164379643465e-01
1.879340313239504234e-01
1.883509176266050245e-01
1.883973375678352769e-01
1.881388416708573430e-01
1.876427419998162593e-01
1.869732336417830043e-01
1.861867884437590770e-01
1.853281235401186000e-01
1.844270065611301468e-01
1.834961021149201787e-01
1.825299944834498367e-01
1.815054440380851619e-01
1.803828547355274259e-01
1.791088525406966947e-01
1.776198044549934241e-01
1.758460496261620987e-01
1.737165710818075748e-01
1.711638115293407925e-01
1.681283307832284191e-01
1.645630156063942195e-01
1.604365840950560118e-01
1.557361737580146011e-01
1.504688619928376547e-01
1.446620357898061870e-01
1.383625996074273057e-01
1.316350820702539837e-01
1.245587687196881288e-01
1.172240455695491013e-01
1.097281832008030478e-01
1.021708209163222636e-01
9.464942359854240650e-02
8.725497976209739548e-02
8.006818862151453275e-02
7.315634823631980699e-02
6.657110865674836786e-02
6.034719661188434059e-02
5.450215561281084031e-02
4.903708123054475315e-02
4.393826996594598494e-02
3.917964529632737142e-02
3.472577941904107096e-02
3.053529675188740300e-02
2.656442689282596803e-02
2.277047162705487029e-02
1.911496246727054787e-02
1.556631106799202975e-02
1.210179289921276338e-02
8.708751884643373131e-03
5.384967564904588437e-03
2.138182749109727131e-03
-1.015154656510922765e-03
-4.051830723003103756e-03
-6.944336738757419560e-03
-9.663690385337738234e-03
-1.218240317871720213e-02
-1.447738250376084598e-02
-1.653256224456583351e-02
-1.834107482818569251e-02
-1.990680820272790197e-02
-2.124523170964457905e-02
-2.238342247978439975e-02
-2.335927576001785300e-02
-2.421993512941847046e-02
-2.501952893629037084e-02
-2.581634402066209505e-02
-2.666960438943674627e-02
-2.763604874618075594e-02
-2.876651513472830088e-02
-3.010274259331952029e-02
-3.167458861771116352e-02
-3.349783816750514370e-02
-3.557274632495892319e-02
-3.788341460952174972e-02
-4.039805287307432491e-02
-4.307012759225675724e-02
-4.584034606492962127e-02
-4.863937778366796832e-02
-5.139117159325679723e-02
-5.401669274804685866e-02
-5.643787956968888964e-02
-5.858160635087215212e-02
-6.038343818462391793e-02
-6.179097444822644059e-02
-6.276660005047039748e-02
-6.328949588277242577e-02
-6.335680038913213408e-02
-6.298386036907882568e-02
-6.220355845003706224e-02
-6.106475447979525795e-02
-5.962992542204578056e-02
-5.797213089219384330e-02
-5.617146659342071163e-02
-5.431119426462194255e-02
-5.247375243031236064e-02
-5.073685699871900018e-02
-4.916989412359374506e-02
-4.783079038614108242e-02
-4.676351829340547744e-02
-4.599635975265418258e-02
-4.554100886233760498e-02
-4.539254997763086247e-02
-4.553030029155070990e-02
-4.591946050913647825e-02
-4.651347502355296371e-02
-4.725696654767006649e-02
-4.808908114922769844e-02
-4.894705982035967712e-02
-4.976984259261516691e-02
-5.050151169187978850e-02
-5.109439072706752766e-02
-5.151163719528417673e-02
-5.172919409736620455e-02
-5.173700186995564693e-02
-5.153941225373740581e-02
-5.115478868898990644e-02
-5.061432155689246648e-02
-4.996012821470911108e-02
-4.924274570333320861e-02
-4.851815584473578857e-02
-4.784450682660358611e-02
-4.727871096205305684e-02
-4.687310436946168918e-02
-4.667235058983623675e-02
-4.671075678874005849e-02
-4.701014904903896841e-02
-4.757842334873565310e-02
-4.840885291814858715e-02
-4.948019241163385123e-02
-5.075757701228573310e-02
-5.219417235145674266e-02
-5.373349109340850444e-02
-5.531225645024135523e-02
-5.686366341689942649e-02
-5.832086693677970834e-02
-5.962051340467681287e-02
-6.070612888133462143e-02
-6.153118401214656419e-02
-6.206167181798438043e-02
-6.227805941458318395e-02
-6.217650699679027476e-02
-6.176928539019536923e-02
-6.108436537676585620e-02
-6.016419534774225530e-02
-5.906372661949148284e-02
-5.784778551687957265e-02
-5.658792603576900254e-02
-5.535892468600047550e-02
-5.423509847968811109e-02
-5.328663671507187505e-02
-5.257613696634939882e-02
-5.215552513030234649e-02
-5.206351930088043423e-02
-5.232376848575809314e-02
-5.294376130859824309e-02
-5.391455883533495530e-02
-5.521136162566861461e-02
-5.679487650725187353e-02
-5.861340575501716721e-02
-6.060554284777180251e-02
-6.270332669805904480e-02
-6.483568224601914121e-02
-6.693196076278258577e-02
-6.892538897751830651e-02
-7.075624274724645613e-02
-7.237457758796880802e-02
-7.374237467974999183e-02
-7.483499481421342081e-02
-7.564187293000219914e-02
-7.616642943140614075e-02
-7.642521944254852817e-02
-7.644638453954701041e-02
-7.626751092724962100e-02
-7.593303127484460346e-02
-7.549133229060496497e-02
-7.499174534187152963e-02
-7.448160194170802550e-02
-7.400352955049398218e-02
-7.359314617278023274e-02
-7.327728571387412404e-02
-7.307285160352752773e-02
-7.298635583276100181e-02
-7.301415690647872214e-02
-7.314336572163329664e-02
-7.335334607987077649e-02
-7.361769894416703153e-02
-7.390658901831692607e-02
-7.418925082250847625e-02
-7.443650046843139356e-02
-7.462307965829709233e-02
-7.472967001817175381e-02
-7.474443814484806048e-02
-7.466400326642318175e-02
-7.449375831589898078e-02
-7.424751897598028116e-02
-7.394652112914625042e-02
-7.361783207711827814e-02
-7.329228201072118809e-02
-7.300205669491317828e-02
-7.277811788742011290e-02
-7.264763263983836650e-02
-7.263159539831234857e-02
-7.274281726247983082e-02
-7.298443512156438384e-02
-7.334906117986701723e-02
-7.381865224099339040e-02
-7.436513082754191151e-02
-7.495173956841234830e-02
-7.553505979174972296e-02
-7.606757810968804712e-02
-7.650064424888154690e-02
-7.678763238449892725e-02
-7.688709890596789887e-02
-7.676572359869186790e-02
-7.640082937522589546e-02
-7.578229762591932872e-02
-7.491373108671960102e-02
-7.381276170313721963e-02
-7.251045468829168950e-02
-7.104981844812764680e-02
-6.948348946973875728e-02
-6.787071800327310056e-02
-6.627383022122794454e-02
-6.475438238781296152e-02
-6.336924930443221804e-02
-6.216690085113169006e-02
-6.118411564980717754e-02
-6.044335959910397682e-02
-5.995102018395563614e-02
-5.969663697538952346e-02
-5.965320767602825397e-02
-5.977858100565674321e-02
-6.001787696870067301e-02
-6.030680615350678814e-02
-6.057569729087931149e-02
-6.075399047625822113e-02
-6.077491610705496039e-02
-6.058005941975267566e-02
-6.012350937378140026e-02
-5.937530914119726333e-02
-5.832396294888965438e-02
-5.697780868930367448e-02
-5.536513417744731713e-02
-5.353299355222050637e-02
-5.154476386036014462e-02
-4.947656526000103472e-02
-4.741274594186873498e-02
-4.544069972137505103e-02
-4.364533548780873823e-02
-4.210354952619421720e-02
-4.087906177431045035e-02
-4.001796362661994705e-02
-3.954528859713438843e-02
-3.946285939222628908e-02
-3.974858902207181049e-02
-4.035732391990694279e-02
-4.122321893622095390e-02
-4.226353392317870605e-02
-4.338364557960369683e-02
-4.448298291061625331e-02
-4.546152581030916268e-02
-4.622645883912411546e-02
-4.669855001423622864e-02
-4.681782953607702830e-02
-4.654817627049744749e-02
-4.588047915316432329e-02
-4.483412358272498982e-02
-4.345665435232363288e-02
-4.182158093739351407e-02
-4.002441090391588296e-02
-3.817711513237925791e-02
-3.640133691906903557e-02
-3.482074828530214161e-02
-3.355302484932522894e-02
-3.270194999367727340e-02
-3.235016655091086518e-02
-3.255306839947622044e-02
-3.333426567255332040e-02
-3.468296876539370827e-02
-3.655352261677358855e-02
-3.886719050790463093e-02
-4.151614381507091889e-02
-4.436946960434899612e-02
-4.728087112115837709e-02
-5.009761596198099992e-02
-5.267019146083191938e-02
-5.486206346332867662e-02
-5.655890826539958227e-02
-5.767670091932497467e-02
-5.816809691232731339e-02
-5.802663596470965246e-02
-5.728842195754754035e-02
-5.603108462832610132e-02
-5.436999785811831576e-02
-5.245190581651519579e-02
-5.044628078265128712e-02
-4.853489397963190594e-02
-4.690021262653260026e-02
-4.571333330318685939e-02
-4.512221628705401916e-02
-4.524099282663390093e-02
-4.614107531786117156e-02
-4.784471001456684636e-02
-5.032147744250557719e-02
-5.348807402098725711e-02
-5.721150930667839168e-02
-6.131563850151269118e-02
-6.559073234145472442e-02
-6.980558024539534889e-02
-7.372144088870034861e-02
-7.710700972314493695e-02
-7.975347594132561890e-02
-8.148869952836623742e-02
-8.218955770644938152e-02
-8.179158938223927977e-02
-8.029520434284100061e-02
-7.776791361628504484e-02
-7.434226918254366323e-02
-7.020946189249552272e-02
-6.560880087253510851e-02
-6.081356922383106961e-02
-5.611400237941448210e-02
-5.179835075781176468e-02
-4.813315238330551776e-02
-4.534394194318830396e-02
-4.359765148444446486e-02
-4.298790996477133697e-02
-4.352432422430364822e-02
-4.512662701639420793e-02
-4.762431791264205155e-02
-5.076211314148322551e-02
-5.421117797235414093e-02
-5.758575909358315537e-02
-6.046448579024889247e-02
-6.241528875101797630e-02
-6.302261424006530555e-02
-6.191540743653646539e-02
-5.879421663559734196e-02
-5.345574023263267860e-02
-4.581320637589259698e-02
-3.591114060229035065e-02
-2.393333392753243735e-02
-1.020316109906772330e-02
4.824200304358139228e-03
2.057765547406622750e-02
3.639372544467597143e-02
5.154681455991932948e-02
6.528487658689426099e-02
7.686877937619525369e-02
8.561338474088060757e-02
9.092817672787836814e-02
9.235520153916726427e-02
8.960213356605853385e-02
8.256845547376302774e-02
7.136303032052594697e-02
5.631173777895813470e-02
3.795432625239108376e-02
1.703017410190429612e-02
-5.546771395588211313e-03
-2.872302975919010029e-02
-5.134919886340238993e-02
-7.223025064353290337e-02
-9.018021250409728740e-02
-1.040786396126080621e-01
-1.129261153332208750e-01
-1.158959896914926457e-01
-1.123796830820169984e-01
-1.020231413270518278e-01
-8.475241758689842919e-02
-6.078685820509851373e-02
-3.063895904617962643e-02
4.899393540917549618e-03
4.478391024093168749e-02
8.775706484973809507e-02
1.323977704254083454e-01
1.771793555255875563e-01
2.205331953356847452e-01
2.609150467719419941e-01
2.968709777056158239e-01
3.270997771759693862e-01
3.505088873231917423e-01
3.662612011035882853e-01
3.738105080000668212e-01
3.729239203201915598e-01
3.636902471065668885e-01
3.465139687821605641e-01
3.220951675682461879e-01
2.913964507086873601e-01
2.555985303166666278e-01
2.160466632195372771e-01
1.741905793217431997e-01
1.315208163443885581e-01
8.950451868216632856e-02
4.952374245780240963e-02
1.281913997468866681e-02
-1.955841483195630559e-02
-4.678613504367657577e-02
-6.829597603747908363e-02
-8.378865889639815212e-02
-9.323473122090307486e-02
-9.686298701151713209e-02
-9.513718991184186291e-02
-8.872260540997353728e-02
-7.844431895563011570e-02
-6.523967571495579987e-02
-5.010740712009333075e-02
-3.405610010271549470e-02
-1.805461551554050567e-02
-2.986878178652791014e-03
1.038684451509148780e-02
2.146046634291748703e-02
2.980318503948410289e-02
3.517047657939580824e-02
3.750484893760305805e-02
3.692676836465329238e-02
3.371667645416267373e-02
2.828945561011261475e-02
2.116305194636116521e-02
1.292321160746687930e-02
4.186418630153392918e-03
-4.436863940621389030e-03
-1.237664993355403614e-02
-1.913379155222743114e-02
-2.430475488473515452e-02
-2.759968929321675313e-02
-2.885309083135140923e-02
-2.802680369235605734e-02
-2.520554544495250127e-02
-2.058555667673191494e-02
-1.445734099754974675e-02
-7.183758304064077893e-03
8.250520054775692998e-04
9.138319777935719965e-03
1.733124152034788354e-02
2.500997241034630045e-02
3.183361515394897423e-02
3.753203940009400275e-02
4.191865606676770800e-02
4.489760179282636932e-02
4.646513926620073065e-02
4.670542814660281344e-02
4.578114851882861269e-02
4.391974568927754785e-02
4.139629626010791347e-02
3.851415921495119493e-02
3.558466453813292213e-02
3.290710338342686669e-02
3.075021951108058288e-02
2.933626843007616086e-02
2.882851819811121930e-02
2.932282808680062788e-02
3.084367351465686080e-02
3.334470517548689117e-02
3.671365406235521656e-02
4.078113867135470250e-02
4.533271057715287239e-02
5.012330185835608271e-02
5.489312139242025212e-02
5.938399186913012606e-02
6.335512682086581748e-02
6.659741463068034883e-02
6.894539795609699873e-02
7.028630363617134613e-02
7.056567786976312984e-02
6.978940145676526541e-02
6.802208592960870548e-02
6.538206964062641402e-02
6.203343032858574940e-02
5.817559598197830084e-02
5.403126005600937531e-02
4.983338394064526500e-02
4.581209616340051888e-02
4.218227393941598180e-02
3.913252173107031190e-02
3.681614942258074757e-02
3.534460764766321483e-02
3.478366997592235305e-02
3.515247217886246361e-02
3.642533903536964573e-02
3.853616034805188578e-02
4.138493010093358820e-02
4.484594441708805029e-02
4.877707149611137244e-02
5.302946411089063533e-02
5.745708356508032882e-02
6.192544219374981201e-02
6.631904561939667986e-02
7.054712028514194266e-02
7.454733854366872581e-02
7.828739411866506015e-02
8.176442570782098407e-02
8.500242631713317287e-02
8.804790218296912330e-02
9.096414987819097242e-02
9.382459768637296804e-02
9.670570311921283801e-02
9.967991098559114693e-02
1.028091554451646961e-01
1.061393376624331641e-01
1.096961321093240654e-01
1.134823750471770920e-01
1.174771754580901384e-01
1.216367690595713258e-01
1.258970183617073579e-01
1.301773532471928452e-01
1.343858542490231067e-01
1.384251101926047556e-01
1.421984370958085941e-01
1.456160286752302413e-01
1.486006207362288445e-01
1.510922909763744437e-01
1.530520789982749152e-01
1.544641941831211007e-01
1.553366756560122242e-01
1.557004724971773058e-01
1.556070167452357766e-01
1.551244597877398934e-01
1.543328284835161490e-01
1.533184251584457924e-01
1.521678418353885065e-01
1.509619807565753535e-01
1.497704696239492428e-01
1.486468315952515495e-01
1.476247190215534688e-01
1.467154500629114233e-01
1.459070028445737244e-01
1.451645288654015986e-01
1.444323513248946811e-01
1.436373214960415534e-01
1.426933224042860604e-01
1.415066395483002837e-01
1.399818668734174321e-01
1.380279857897835083e-01
1.355642474368075334e-01
1.325255033127246407e-01
1.288666661005676006e-01
1.245660379752141500e-01
1.196273143814745726e-01
1.140801527043898422e-01
1.079792820592198610e-01
1.014022175409694804e-01
9.444572393059251503e-02
8.722124581352327932e-02
7.984957851011982577e-02
7.245509442949937817e-02
6.515986001674825556e-02
5.807797876131778891e-02
5.131047591766384891e-02
4.494100241773267557e-02
3.903258167078699215e-02
3.362555683503042070e-02
2.873682231083355895e-02
2.436034598013700481e-02
2.046891303493368966e-02
1.701695238743792388e-02
1.394424693548655496e-02
1.118028264077592336e-02
8.648960796049341704e-03
6.273384698924308958e-03
3.980436489193305179e-03
1.704881314999064264e-03
-6.072272241785148413e-04
-2.996017081541283832e-03
-5.486261147399542314e-03
-8.086887798921754342e-03
-1.079152655583673869e-02
-1.358001369885698632e-02
-1.642072578667841051e-02
-1.927356186989842221e-02
-2.209336029993962114e-02
-2.483351535114975209e-02
-2.744955318284024795e-02
-2.990243609936239777e-02
-3.216138766877934402e-02
-3.420606712133373445e-02
-3.602796734531517331e-02
-3.763096330774882980e-02
-3.903099392461311518e-02
-4.025491625146833397e-02
-4.133862332413838769e-02
-4.232456254343131691e-02
-4.325882776999370738e-02
-4.418802287717654709e-02
-4.515610633864287904e-02
-4.620142486288551092e-02
-4.735412937900593255e-02
-4.863414008190949239e-02
-5.004979046385648472e-02
-5.159723567426501012e-02
-5.326066117215150220e-02
-5.501327638344234716e-02
-5.681902832802940978e-02
-5.863492474713036251e-02
-6.041381820270942671e-02
-6.210747393878843226e-02
-6.366972684950397698e-02
-6.505952761657651795e-02
-6.624368519085711837e-02
-6.719913185299544733e-02
-6.791456676711317419e-02
-6.839137253384780513e-02
-6.864374414477182607e-02
-6.869801841663382425e-02
-6.859124137479688521e-02
-6.836905805806851866e-02
-6.808305120061251825e-02
-6.778768952997270281e-02
-6.753707097806313508e-02
-6.738165942686484555e-02
-6.736521494558789236e-02
-6.752210674760703024e-02
-6.787517577416121717e-02
-6.843428143276830689e-02
-6.919562631334807978e-02
-7.014190624849239719e-02
-7.124328337465163363e-02
-7.245913023723717095e-02
-7.374044602428556083e-02
-7.503280474374597608e-02
-7.627966205956633605e-02
-7.742582446358044213e-02
-7.842087306196973695e-02
-7.922233507346577996e-02
-7.979840945878094449e-02
-8.013007787298796758e-02
-8.021246729772155137e-02
-8.005537411964744332e-02
-7.968290848863941733e-02
-7.913226989865966565e-02
-7.845171670506528860e-02
-7.769784104875296360e-02
-7.693230301584863540e-02
-7.621821178890962611e-02
-7.561636452146855425e-02
-7.518156441058719552e-02
-7.495923726602062021e-02
-7.498255058097802461e-02
-7.527021174790703151e-02
-7.582508370475221637e-02
-7.663370967735515238e-02
-7.766678583020718285e-02
-7.888056523420394761e-02
-8.021912129923333690e-02
-8.161734742629139783e-02
-8.300452494513839430e-02
-8.430825619517703928e-02
-8.545853617456972140e-02
-8.639172584394066989e-02
-8.705419394182907500e-02
-8.740541177779634352e-02
-8.742031604372683951e-02
-8.709079663813616701e-02
-8.642621737382349956e-02
-8.545293421261306033e-02
-8.421283510286396712e-02
-8.276098401858286713e-02
-8.116250576476624623e-02
-7.948889433430780804e-02
-7.781396317450103850e-02
-7.620967822212212917e-02
-7.474212272937125201e-02
-7.346783585034910580e-02
-7.243074510803157451e-02
-7.165987728773154375e-02
-7.116798512135122379e-02
-7.095117108920491467e-02
-7.098952810491532261e-02
-7.124875365509579506e-02
-7.168263280820645622e-02
-7.223623062038557474e-02
-7.284958886506670561e-02
-7.346168924187043703e-02
-7.401442697797100401e-02
-7.445633685588760875e-02
-7.474582808657141697e-02
-7.485371486507774730e-02
-7.476487376001622609e-02
-7.447891502861951618e-02
-7.400981891169834681e-02
-7.338455604312313363e-02
-7.264077899049628528e-02
-7.182373516721037021e-02
-7.098260588911935176e-02
-7.016651831039022458e-02
-6.942050345919871523e-02
-6.878168264344498850e-02
-6.827595496153865406e-02
-6.791543089575736991e-02
-6.769681228910982840e-02
-6.760086001105584941e-02
-6.759302065361799672e-02
-6.762520719927182788e-02
-6.763865038538935393e-02
-6.756766261121988082e-02
-6.734408971501891494e-02
-6.690217233264304786e-02
-6.618350165761090198e-02
-6.514173721108311443e-02
-6.374675837732847461e-02
-6.198794729374267759e-02
-5.987634721265570198e-02
-5.744550517432123887e-02
-5.475088726126325911e-02
-5.186784393365215934e-02
-4.888819670796546585e-02
-4.591560957632759288e-02
-4.305999322081598135e-02
-4.043126157118145242e-02
-3.813281337794535708e-02
-3.625514245913513678e-02
-3.486998627151942365e-02
-3.402540231188651287e-02
-3.374211623516823466e-02
-3.401141620241209668e-02
-3.479477911027033937e-02
-3.602531050096893783e-02
-3.761096781814450563e-02
-3.943942275224358862e-02
-4.138431017491676911e-02
-4.331251567686199982e-02
-4.509207723666950468e-02
-4.660022492018669332e-02
-4.773105932521812950e-02
-4.840237744678948378e-02
-4.856119400594745977e-02
-4.818757542702182400e-02
-4.729649922612643581e-02
-4.593756812626779984e-02
-4.419253905913603925e-02
-4.217076433810482833e-02
-4.000277723239454436e-02
-3.783237832430331321e-02
-3.580768399260266660e-02
-3.407167716826556281e-02
-3.275284713701065442e-02
-3.195651584329714523e-02
-3.175742118217627502e-02
-3.219406366607186626e-02
-3.326522473878782554e-02
-3.492893804418373271e-02
-3.710404648788418608e-02
-3.967431670258265985e-02
-4.249491847632999586e-02
-4.540092023740778526e-02
-4.821731286469756877e-02
-5.076996246610283176e-02
-5.289681607079397413e-02
-5.445864844614051181e-02
-5.534864693930575952e-02
-5.550018501429365703e-02
-5.489223216865615068e-02
-5.355198300884261853e-02
-5.155445408492481674e-02
-4.901898411346746615e-02
-4.610276989229466355e-02
-4.299176457974050736e-02
-3.988944437747569960e-02
-3.700410230593072225e-02
-3.453544297674015356e-02
-3.266132163554386764e-02
-3.152548834840103453e-02
-3.122716127714439405e-02
-3.181316213466970494e-02
-3.327320614109852831e-02
-3.553875553150218081e-02
-3.848562994960947475e-02
-4.194033182612568605e-02
-4.568980412686234061e-02
-4.949410685169219198e-02
-5.310129241821864854e-02
-5.626359239030354065e-02
-5.875391102549795685e-02
-6.038156376783029855e-02
-6.100620718300948236e-02
-6.054898239400433035e-02
-5.900003472264016974e-02
-5.642177150714387801e-02
-5.294746738373056621e-02
-4.877510815857967474e-02
-4.415666432127686447e-02
-3.938328520188337512e-02
-3.476718594588650013e-02
-3.062124382774597184e-02
-2.723751117850657308e-02
-2.486597554215325481e-02
-2.369494330304815558e-02
-2.383438510829307203e-02
-2.530345892667081736e-02
-2.802322372547863538e-02
-3.181528271323189050e-02
-3.640676366999393704e-02
-4.144167300550164607e-02
-4.649827063443903036e-02
-5.111172725100452535e-02
-5.480096756446076189e-02
-5.709829492154671476e-02
-5.758015493633961146e-02
-5.589724515056097853e-02
-5.180212671781792011e-02
-4.517254965535303507e-02
-3.602886602428034130e-02
-2.454417046341478281e-02
-1.104616285363777504e-02
3.989843040499254853e-03
1.995686095556676101e-02
3.614071345971140575e-02
5.175213951873727791e-02
6.596514201121371490e-02
7.795977546390370216e-02
8.696724518047684038e-02
9.231496601193020513e-02
9.346912785541043600e-02
9.007234589971421790e-02
8.197413834188714554e-02
6.925226902120501515e-02
5.222340378076909678e-02
3.144203923094221476e-02
7.687245316504623394e-03
-1.806261073202706027e-02
-4.466635474651155929e-02
-7.086629293777770011e-02
-9.534232293927780155e-02
-1.167714282725799135e-01
-1.338897645623154664e-01
-1.455543315167551199e-01
-1.508011621905777644e-01
-1.488970564280950315e-01
-1.393821370586004471e-01
-1.221009048222659321e-01
-9.721999295208963443e-02
-6.523144930581503687e-02
-2.694107156871176911e-02
1.655794572847312310e-02
6.392506312411733171e-02
1.136244675572409685e-01
1.639868702389796207e-01
2.132782341465264686e-01
2.597722665995000901e-01
3.018233012051327324e-01
3.379361507268014431e-01
3.668296412433924569e-01
3.874908322946554184e-01
3.992173732078991844e-01
4.016460194983973997e-01
3.947660061338594262e-01
3.789167116480965380e-01
3.547698108202673173e-01
3.232968645898817717e-01
2.857239954853459385e-01
2.434759095209489410e-01
1.981120202658828433e-01
1.512577830424626790e-01
1.045345400085247595e-01
5.949120181964056425e-02
1.754094904282347753e-02
-2.009416419665763925e-02
-5.242826326880643817e-02
-7.874447906740626724e-02
-9.861430623816049013e-02
-1.119029465427538866e-01
-1.187607980459660512e-01
-1.196019355990761007e-01
-1.150710546186689831e-01
-1.060008868010958727e-01
-9.336251715453060263e-02
-7.821131673210261759e-02
-6.163134286411349472e-02
-4.468104468420627806e-02
-2.834295057911893900e-02
-1.347971809511234846e-02
-7.985148361295569272e-04
9.174803908626565085e-03
1.611081952752420679e-02
1.988066932607522250e-02
2.054944456149967319e-02
1.835970749731392557e-02
1.370646011690924287e-02
7.105300883683105147e-03
-8.441981255688945805e-04
-9.497686182700932483e-03
-1.820554479382199137e-02
-2.635053463471755814e-02
-3.338159205183414274e-02
-3.884208414172661550e-02
-4.239120972487674804e-02
-4.381767041096362031e-02
-4.304520532134051281e-02
-4.013005733351011212e-02
-3.525089124780950850e-02
-2.869209013838801975e-02
-2.082169415764669948e-02
-1.206549932128776585e-02
-2.878990812293924072e-03
6.281159316325996347e-03
1.498434631855381435e-02
2.285049626605922465e-02
2.957042134481593226e-02
3.492104202192816698e-02
3.877479233761404326e-02
4.110289266640104744e-02
4.197254700941026317e-02
4.153847734498283817e-02
4.002952568366957564e-02
3.773131792483013641e-02
3.496617882705779085e-02
3.207160549782300113e-02
2.937864331871312823e-02
2.719146401601398033e-02
2.576932607741348399e-02
2.531191259173601327e-02
2.594880401287558147e-02
2.773356947169350328e-02
3.064266735789821991e-02
3.457905219958527787e-02
3.938010775455820511e-02
4.482928189958602233e-02
5.067060036757015107e-02
5.662509428601537886e-02
6.240809699159059060e-02
6.774635158558814374e-02
7.239392044403089588e-02
7.614599624049224469e-02
7.884987236576776470e-02
8.041252762481369831e-02
8.080450251582640964e-02
8.005997788262086967e-02
7.827319681130244511e-02
7.559158342725762203e-02
7.220609566400601476e-02
6.833949287169524545e-02
6.423329618850198708e-02
6.013426563612991882e-02
5.628121205146668915e-02
5.289290660901058844e-02
5.015775094753953389e-02
4.822573471139990353e-02
4.720304430554177200e-02
4.714950809382162378e-02
4.807888056997810383e-02
4.996179284851177266e-02
5.273103969477720143e-02
5.628874338991942533e-02
6.051483908634038011e-02
6.527626955942780751e-02
7.043626174962440423e-02
7.586308230172449096e-02
8.143773173363146045e-02
8.706013118635842762e-02
9.265347511934099445e-02
9.816655895853676483e-02
1.035740335333232703e-01
1.088746786479977968e-01
1.140879173189387058e-01
1.192489022334387028e-01
1.244025902330813810e-01
1.295972746120200303e-01
1.348780660316301339e-01
1.402808007318933625e-01
1.458268110755839564e-01
1.515189221658537477e-01
1.573389446770255828e-01
1.632468249131777682e-01
1.691814959418132813e-01
1.750633563092399148e-01
1.807981929437447177e-01
1.862822693969083676e-01
1.914082254368582314e-01
1.960713836188937298e-01
2.001760354888092175e-01
2.036412855318679715e-01
2.064060638728960895e-01
2.084329763838952965e-01
2.097107391619215944e-01
2.102550377540136906e-01
2.101077540157100798e-01
2.093346080738335002e-01
2.080213631991148782e-01
2.062688308688315486e-01
2.041869867641765146e-01
2.018885613009933633e-01
1.994824978012952332e-01
1.970676759775778220e-01
1.947272782800073543e-01
1.925241335671939724e-01
1.904973095084440959e-01
1.886601463958802183e-01
1.869998358505423619e-01
1.854785538833566838e-01
1.840360646966759661e-01
1.825936252574941743e-01
1.810589461597929828e-01
1.793319057079151291e-01
1.773106750226083883e-01
1.748978939145844902e-01
1.720065410411828477e-01
1.685651667646918817e-01
1.645222010427887516e-01
1.598491085756074404e-01
1.545422352938102539e-01
1.486232694721703329e-01
1.421383224543330825e-01
1.351557130955962083e-01
1.277626120464820936e-01
1.200607628596636195e-01
1.121615432042617211e-01
1.041806590488117412e-01
9.623277620471873406e-02
8.842638706887140376e-02
8.085918677264464227e-02
7.361419412862968414e-02
6.675680171810698116e-02
6.033287951407240862e-02
5.436799161720499290e-02
4.886771983743449371e-02
4.381902508620236919e-02
3.919252135141627902e-02
3.494549047817041565e-02
3.102543157506599744e-02
2.737391781934661594e-02
2.393052688694508393e-02
2.063661847940191640e-02
1.743875269992408231e-02
1.429157446770421003e-02
1.116002924942238739e-02
8.020821495098865578e-03
4.863076088422894905e-03
1.688211873478960394e-03
-1.490918129584089917e-03
-4.651525311479561865e-03
-7.762896301066073146e-03
-1.078876684524093105e-02
-1.368989709434519954e-02
-1.642668465969436206e-02
-1.896165972004877631e-02
-2.126172342264352061e-02
-2.330001494893255837e-02
-2.505732236045241784e-02
-2.652298520750183408e-02
-2.769527084348748225e-02
-2.858123919461706686e-02
-2.919614028458929200e-02
-2.956241375222594392e-02
-2.970837826251204392e-02
-2.966671067723061078e-02
-2.947281956880693637e-02
-2.916321548409835790e-02
-2.877397180563440182e-02
-2.833935615878924522e-02
-2.789069454833634915e-02
-2.745550979605703920e-02
-2.705695459492401742e-02
-2.671353849151001172e-02
-2.643912922857420342e-02
-2.624319291351511971e-02
-2.613122557434406981e-02
-2.610532116037514450e-02
-2.616481816475876160e-02
-2.630696878883755085e-02
-2.652758006496092752e-02
-2.682158536158563145e-02
-2.718351581915335116e-02
-2.760785378396905798e-02
-2.808926300101639156e-02
-2.862270207437001349e-02
-2.920343795688475422e-02
-2.982698381571124296e-02
-3.048899042774401089e-02
-3.118512192074917450e-02
-3.191094523926962800e-02
-3.266185850158303400e-02
-3.343307696397920109e-02
-3.421968725092142810e-02
-3.501677160273897887e-02
-3.581959515780879649e-02
-3.662384118886557322e-02
-3.742587282301514801e-02
-3.822299533970494739e-02
-3.901369134656792331e-02
-3.979780180196002687e-02
-4.057662919746688607e-02
-4.135294485086987715e-02
-4.213088964894674826e-02
-4.291576625526601768e-02
-4.371372983726317524e-02
-4.453139319742216440e-02
-4.537536998054134824e-02
-4.625178563608985105e-02
-4.716578969030390395e-02
-4.812110407777376447e-02
-4.911964081829552770e-02
-5.016121814594407674e-02
-5.124339767177524957e-02
-5.236145666799429943e-02
-5.350849995074283272e-02
-5.467570554235884339e-02
-5.585268844280549816e-02
-5.702795796768162645e-02
-5.818943707811759930e-02
-5.932500753004830291e-02
-6.042304275256648455e-02
-6.147289162908000509e-02
-6.246528038330162458e-02
-6.339260659340960335e-02
-6.424910841527069205e-02
-6.503090253058137205e-02
-6.573589555672433582e-02
-6.636358465727555667e-02
-6.691477296812124720e-02
-6.739123333357567580e-02
-6.779535909397306492e-02
-6.812984264958726888e-02
-6.839742100652311529e-02
-6.860072241497382206e-02
-6.874223983946577132e-02
-6.882444583775944313e-02
-6.885005018938421262e-02
-6.882238746593065393e-02
-6.874590742938853360e-02
-6.862672818147799725e-02
-6.847320129631397079e-02
-6.829643071593942405e-02
-6.811068402895271989e-02
-6.793363608342144200e-02
-6.778639133890182467e-02
-6.769324248309525893e-02
-6.768113830143840381e-02
-6.777885281260094541e-02
-6.801586904284281920e-02
-6.842101315535993600e-02
-6.902089650869479287e-02
-6.983824291918344640e-02
-7.089019448349143104e-02
-7.218670038397098643e-02
-7.372909794709643638e-02
-7.550899326160409597e-02
-7.750753938444204794e-02
-7.969519374948251522e-02
-8.203201359094493272e-02
-8.446851975942541724e-02
-8.694712717354673159e-02
-8.940410576212458327e-02
-9.177200147493734528e-02
-9.398241475794383293e-02
-9.596900615667501577e-02
-9.767057726698410991e-02
-9.903406184742401253e-02
-1.000172578855179351e-01
-1.005911372705413226e-01
-1.007415859226772348e-01
-1.004704529234875243e-01
-9.979582149490381915e-02
-9.875145570856902477e-02
-9.738542240739898881e-02
-9.575793548742794759e-02
-9.393851623164364839e-02
-9.200260646270026765e-02
-9.002780760421977280e-02
-8.808994610258147340e-02
-8.625918210510090389e-02
-8.459638213612420687e-02
-8.314996749854253189e-02
-8.195342791691724582e-02
-8.102365588462730195e-02
-8.036021260246839493e-02
-7.994558399436708929e-02
-7.974642782043868394e-02
-7.971575386844335920e-02
-7.979592212251039596e-02
-7.992229222210052442e-02
-8.002731487533630561e-02
-8.004482485478293941e-02
-7.991427824475294539e-02
-7.958467498107016369e-02
-7.901792193796458585e-02
-7.819142159776620860e-02
-7.709971493534877041e-02
-7.575506243790254557e-02
-7.418691092283312416e-02
-7.244026224256487623e-02
-7.057302888967481591e-02
-6.865252674108579534e-02
-6.675131232325888508e-02
-6.494261753063773623e-02
-6.329566518806543918e-02
-6.187116229233808468e-02
-6.071726261076551556e-02
-5.986626666014013831e-02
-5.933228579514214507e-02
-5.911004055229308191e-02
-5.917489456384979890e-02
-5.948414851210125781e-02
-5.997953827343536354e-02
-6.059080273896728236e-02
-6.124011478251854823e-02
-6.184710831190774749e-02
-6.233418933194471295e-02
-6.263179290481669936e-02
-6.268324275428857617e-02
-6.244888720990748876e-02
-6.190922337219556537e-02
-6.106677917603611783e-02
-5.994659716293893742e-02
-5.859524995333135339e-02
-5.707841037527872780e-02
-5.547709329766675052e-02
-5.388277534019079301e-02
-5.239167692419064576e-02
-5.109855340738381907e-02
-5.009038366126024322e-02
-4.944036231423160066e-02
-4.920259415542448805e-02
-4.940785561682647931e-02
-5.006073021946351453e-02
-5.113834548162880800e-02
-5.259084252109617885e-02
-5.434360200852313832e-02
-5.630113797653435448e-02
-5.835246120658924701e-02
-6.037761358935320177e-02
-6.225499081041006855e-02
-6.386900862268826695e-02
-6.511763256843867975e-02
-6.591928532242993799e-02
-6.621867100785397420e-02
-6.599111133786136896e-02
-6.524507129335771483e-02
-6.402265816763558215e-02
-6.239800072167501349e-02
-6.047354780284375231e-02
-5.837445969555781627e-02
-5.624139238224561133e-02
-5.422208627947366910e-02
-5.246225950271649063e-02
-5.109636487859167686e-02
-5.023879509605886501e-02
-4.997610906762841448e-02
-5.036080429160031541e-02
-5.140707689655792112e-02
-5.308889711471936196e-02
-5.534058989867293721e-02
-5.805995598482167203e-02
-6.111380749373086091e-02
-6.434563417376373828e-02
-6.758497175633589038e-02
-7.065792229038210526e-02
-7.339818616031713872e-02
-7.565791346831207687e-02
-7.731767310491129142e-02
-7.829487297051009043e-02
-7.855004364374926218e-02
-7.809051659096563625e-02
-7.697118046503635680e-02
-7.529217649623078101e-02
-7.319358600088148037e-02
-7.084735759058034821e-02
-6.844690684279659820e-02
-6.619498455085054411e-02
-6.429054035060446926e-02
-6.291539706602035376e-02
-6.222159041010947439e-02
-6.232021494754887841e-02
-6.327254912109263330e-02
-6.508411252258415602e-02
-6.770214324248688409e-02
-7.101678077671713663e-02
-7.486601256164247820e-02
-7.904420280402094101e-02
-8.331378591631496966e-02
-8.741948860530573961e-02
-9.110425865425642034e-02
-9.412593787359893605e-02
-9.627363179987746822e-02
-9.738270695899851892e-02
-9.734739169303538442e-02
-9.613006795997955378e-02
-9.376651495844660900e-02
-9.036659227190746435e-02
-8.611011815873545472e-02
-8.123799286584745816e-02
-7.603891969654896776e-02
-7.083236995289325655e-02
-6.594870297776439516e-02
-6.170757206935858358e-02
-5.839590563054738309e-02
-5.624683848404297276e-02
-5.542097267052291387e-02
-5.599126680219913138e-02
-5.793268978367449584e-02
-6.111753487579839328e-02
-6.531698545534002365e-02
-7.020916995051605658e-02
-7.539355984070042482e-02
-8.041117303139257155e-02
-8.476966845536566819e-02
-8.797207952900198968e-02
-8.954765548657890595e-02
-8.908307961550819554e-02
-8.625222677708567487e-02
-8.084261917487556293e-02
-7.277684337308196194e-02
-6.212740106841101173e-02
-4.912377278766150157e-02
-3.415086374646805062e-02
-1.773845484975813958e-02
-5.417757941405801012e-04
1.668617543834063216e-02
3.312945000348211516e-02
4.794953686860617403e-02
6.032937833085023210e-02
6.951878316553668224e-02
7.487883625736510562e-02
7.592285807149484755e-02
7.235155440157312046e-02
6.408021632654643807e-02
5.125617360816239754e-02
3.426515716977389381e-02
1.372576583879004872e-02
-9.528167490762191882e-03
-3.447688591479788900e-02
-5.995464511074933417e-02
-8.469863934660253058e-02
-1.074047626551457163e-01
-1.267876336214623367e-01
-1.416420192675528211e-01
-1.509026431774788124e-01
-1.536993664571243978e-01
-1.494048898838845896e-01
-1.376724365235702241e-01
-1.184613221906874736e-01
-9.204888528047769358e-02
-5.902789984332285078e-02
-2.028930343015449000e-02
2.300920191709448365e-02
6.948740902282787846e-02
1.175978061659909840e-01
1.656892373872161928e-01
2.120760987521664864e-01
2.551098486422963552e-01
2.932494723733050090e-01
3.251275723610612678e-01
3.496089536210083004e-01
3.658389311542292188e-01
3.732790826771264503e-01
3.717287817421848217e-01
3.613315412916811575e-01
3.425659400275529731e-01
3.162216554854361261e-01
2.833618497866170483e-01
2.452738093329875635e-01
2.034102952442576051e-01
1.593244887488517725e-01
1.146016942974069225e-01
7.079107941835557916e-02
2.934068013445829612e-02
-8.461311717011891706e-03
-4.153632480221779860e-02
-6.905408437576274205e-02
-9.045861647374700554e-02
-1.054806701332393348e-01
-1.141363429609680846e-01
-1.167123879603826214e-01
-1.137393331425323589e-01
-1.059541266246275953e-01
-9.425449964016896498e-02
-7.964759505668607409e-02
-6.319562354489698108e-02
-4.596137515361396059e-02
-2.895633077839659258e-02
-1.309389369649895107e-02
8.500886861657131529e-04
1.226779651424953280e-02
2.073971707045347765e-02
2.604412396032390609e-02
2.815573876096475261e-02
2.723413144282588530e-02
2.360294008044392169e-02
1.772143944044643829e-02
1.015033865258250546e-02
1.513924959871617345e-03
-7.539216419862228812e-03
-1.637468930065974840e-02
-2.440789779065293680e-02
-3.113494364499894140e-02
-3.615730893535810953e-02
-3.919923191421420539e-02
-4.011713831229966887e-02
-3.890096393643375366e-02
-3.566766937726913167e-02
-3.064767853994330646e-02
-2.416534581158553616e-02
-1.661485297152824267e-02
-8.433142229085942299e-03
-7.159700720705061564e-05
8.031814787322514443e-03
1.547831655231724467e-02
2.193058556954154484e-02
2.713033282010620870e-02
3.091035146573503298e-02
3.320054437220462673e-02
3.402781544248235923e-02
3.351007716452488600e-02
3.184496624087861799e-02
2.929415149649049199e-02
2.616434796696841605e-02
2.278630645517106673e-02
1.949312259482014961e-02
1.659920159505645296e-02
1.438112763422246497e-02
1.306152835489693409e-02
1.279680657133343107e-02
1.366934849523766295e-02
1.568452737609753178e-02
1.877252192031852659e-02
2.279467825186773725e-02
2.755387983827130641e-02
3.280816652765707053e-02
3.828667375629959263e-02
4.370685464760634686e-02
4.879190544524950740e-02
5.328733914788750387e-02
5.697573932015151388e-02
5.968886881228111646e-02
6.131649597527496359e-02
6.181152086394681860e-02
6.119122176443624744e-02
5.953468286308553903e-02
5.697669249307708850e-02
5.369860441269515977e-02
4.991682068629558350e-02
4.586967481455061363e-02
4.180356215519605290e-02
3.795917889363516207e-02
3.455869170066805385e-02
3.179457210824358088e-02
2.982069944356157895e-02
2.874617354559032278e-02
2.863209426432759136e-02
2.949137133362743357e-02
3.129143779436833334e-02
3.395956436672845774e-02
3.739032163951174631e-02
4.145462006975199343e-02
4.600968087635719933e-02
5.090925735350981113e-02
5.601343665117296255e-02
6.119740469802051330e-02
6.635864668876353956e-02
7.142217605360072497e-02
7.634352701874215497e-02
8.110940039080044572e-02
8.573600879242361528e-02
9.026531623800494730e-02
9.475949847086655164e-02
9.929405709525192247e-02
1.039500960840639837e-01
1.088063099037391568e-01
1.139312366782703617e-01
1.193762981542139112e-01
1.251700839631604556e-01
1.313142454951506388e-01
1.377812515955491868e-01
1.445141316962819944e-01
1.514282004754496369e-01
1.584146302641762649e-01
1.653456210590256992e-01
1.720808204571956102e-01
1.784745725889261281e-01
1.843835304673835385e-01
1.896741520554626470e-01
1.942296169203232836e-01
1.979557458444505535e-01
2.007855765411957760e-01
2.026823395647189552e-01
2.036406833800849525e-01
2.036861094830471619e-01
2.028726899093800384e-01
2.012792438764788583e-01
1.990042408391895223e-01
1.961597688697361563e-01
1.928649558525049601e-01
1.892392540364124243e-01
1.853959954833742096e-01
1.814365973393373688e-01
1.774457447100662721e-01
1.734878085856045304e-01
1.696046719710741779e-01
1.658150448018584633e-01
1.621152533299979603e-01
1.584813986409691622e-01
1.548726973191229261e-01
1.512357499673852579e-01
1.475094340368240664e-01
1.436300890005017261e-01
1.395366551616329664e-01
1.351754424493569751e-01
1.305042404099469311e-01
1.254955327404640164e-01
1.201386450496310515e-01
1.144407285551469061e-01
1.084265601391039002e-01
1.021372154251516812e-01
9.562774153247148579e-02
8.896401557050974407e-02
8.221902026744321024e-02
7.546879696440871033e-02
6.878834710870002089e-02
6.224774644412105207e-02
5.590871206807589838e-02
4.982182387221186642e-02
4.402455123189488728e-02
3.854017734690396574e-02
3.337765091982774351e-02
2.853233265482055248e-02
2.398754613786519690e-02
1.971679285549824551e-02
1.568645243497600317e-02
1.185876385599214308e-02
8.194872736340730324e-03
4.657733871706397875e-03
1.214676615689273907e-03
-2.160528609984422449e-03
-5.486223663316784453e-03
-8.772109069892458297e-03
-1.201920558258240922e-02
-1.522050184289546956e-02
-1.836221166382224698e-02
-2.142552364443044144e-02
-2.438869449676967296e-02
-2.722931728750550492e-02
-2.992658812258682660e-02
-3.246339965832534952e-02
-3.482810667741460808e-02
-3.701583633272444163e-02
-3.902925144745245795e-02
-4.087871675263594906e-02
-4.258186216476345792e-02
-4.416258102561520377e-02
-4.564954155677122816e-02
-4.707432395936783642e-02
-4.846932126517077000e-02
-4.986555748638479141e-02
-5.129058123622683152e-02
-5.276658610826360368e-02
-5.430889189040315895e-02
-5.592489410103040209e-02
-5.761355555627972053e-02
-5.936547503689598715e-02
-6.116352743193909786e-02
-6.298402984396583859e-02
-6.479835167962927356e-02
-6.657485646495261977e-02
-6.828104079895759571e-02
-6.988572308177064263e-02
-7.136113225046145092e-02
-7.268475469902811736e-02
-7.384081530686607830e-02
-7.482129462121875352e-02
-7.562641702871666927e-02
-7.626458166778884995e-02
-7.675174652172601919e-02
-7.711031372987629806e-02
-7.736759812634104450e-02
-7.755398915712954921e-02
-7.770093644881112538e-02
-7.783890047283713309e-02
-7.799541081994885994e-02
-7.819336594810202823e-02
-7.844969026167934734e-02
-7.877443850285159588e-02
-7.917040547608206191e-02
-7.963326321052854873e-02
-8.015221056093625729e-02
-8.071108422589061415e-02
-8.128984799826913243e-02
-8.186635074883408247e-02
-8.241822510910204458e-02
-8.292478934582202255e-02
-8.336881499484839753e-02
-8.373803260257975389e-02
-8.402626649376811196e-02
-8.423411583530460156e-02
-8.436913117174942023e-02
-8.444547120721801470e-02
-8.448306115586944054e-02
-8.450630913258147525e-02
-8.454246820783289929e-02
-8.461975685110049994e-02
-8.476536777324029936e-02
-8.500350335016727821e-02
-8.535357451360563175e-02
-8.582868905160523365e-02
-8.643453567084964650e-02
-8.716874305586820582e-02
-8.802076071175342353e-02
-8.897227247954242468e-02
-8.999811705620971991e-02
-9.106765507953512584e-02
-9.214649173510514046e-02
-9.319843960232737645e-02
-9.418759029189761878e-02
-9.508035640374744302e-02
-9.584734805103897748e-02
-9.646496031905173185e-02
-9.691656894925936017e-02
-9.719325945136639278e-02
-9.729404815651070126e-02
-9.722558972655005738e-02
-9.700140204802037980e-02
-9.664067342621006362e-02
-9.616674626960437788e-02
-9.560539386673314044e-02
-9.498302059273600051e-02
-9.432492021266901394e-02
-9.365372115411606246e-02
-9.298813237033486112e-02
-9.234207947625215629e-02
-9.172429020008905642e-02
-9.113835269956811758e-02
-9.058323291529517263e-02
-9.005420024199692342e-02
-8.954407753433521466e-02
-8.904470407513770391e-02
-8.854848095493986215e-02
-8.804985897356151781e-02
-8.754663045609001326e-02
-8.704089865782069224e-02
-8.653962088989938795e-02
-8.605465281989094217e-02
-8.560225957572220601e-02
-8.520210152152743466e-02
-8.487574595497469898e-02
-8.464479722392329042e-02
-8.452877389491193771e-02
-8.454288947422977651e-02
-8.469591062051280705e-02
-8.498827201355461936e-02
-8.541061906610453169e-02
-8.594292867939537506e-02
-8.655432487037273415e-02
-8.720366267019158402e-02
-8.784090229730509569e-02
-8.840924004395209201e-02
-8.884790596045558098e-02
-8.909548548539192314e-02
-8.909357632745969202e-02
-8.879055680465804123e-02
-8.814522043273563534e-02
-8.713002580413536924e-02
-8.573372209685067857e-02
-8.396313860123999495e-02
-8.184397059169161437e-02
-7.942045125630510516e-02
-7.675386700553045449e-02
-7.391994733598741818e-02
-7.100523561550046991e-02
-6.810261896206416810e-02
-6.530625870090819851e-02
-6.270621325106544297e-02
-6.038307872544555754e-02
-5.840298618010360265e-02
-5.681328661277399578e-02
-5.563922499081828260e-02
-5.488185403732925849e-02
-5.451736953574688738e-02
-5.449796530927155519e-02
-5.475421287254043229e-02
-5.519887339354972999e-02
-5.573195448110852129e-02
-5.624673758301921428e-02
-5.663642940491391692e-02
-5.680103791183035988e-02
-5.665404432022771303e-02
-5.612843987117213662e-02
-5.518172107772868762e-02
-5.379948903238558622e-02
-5.199737491616518437e-02
-4.982111090218475924e-02
-4.734467776367145414e-02
-4.466658097713382958e-02
-4.190442852002985996e-02
-3.918809802324608321e-02
-3.665188110092271190e-02
-3.442607134548775899e-02
-3.262851407761540451e-02
-3.135665612679175429e-02
-3.068062037211377602e-02
-3.063778224148863347e-02
-3.122924559484126575e-02
-3.241850773721323409e-02
-3.413247321484763619e-02
-3.626483155617157839e-02
-3.868166367723960275e-02
-4.122899482049881964e-02
-4.374187807634901531e-02
-4.605448078405784823e-02
-4.801056426397987825e-02
-4.947370158538173107e-02
-5.033657258345883984e-02
-5.052871181954675384e-02
-5.002216268226025025e-02
-4.883460574239017332e-02
-4.702967590524110425e-02
-4.471435232904744789e-02
-4.203348784825524515e-02
-3.916172917474080445e-02
-3.629325416670758919e-02
-3.362990620646934270e-02
-3.136842797972987790e-02
-2.968757868497411134e-02
-2.873595340447340774e-02
-2.862130734794441494e-02
-2.940211995992727395e-02
-3.108201721197076384e-02
-3.360751021974240499e-02
-3.686931355746359690e-02
-4.070728795802946998e-02
-4.491882289858570299e-02
-4.927024857706423927e-02
-5.351065863169008480e-02
-5.738734817382457054e-02
-6.066193880130014288e-02
-6.312618283149552811e-02
-6.461642044145202157e-02
-6.502570854348327378e-02
-6.431274928965760584e-02
-6.250691401389113500e-02
-5.970887736483744546e-02
-5.608663439549600033e-02
-5.186695597827408605e-02
-4.732262851187028774e-02
-4.275610473045052262e-02
-3.848044581436583372e-02
-3.479864413853233501e-02
-3.198256645271479320e-02
-3.025283725490946624e-02
-2.976098422881661223e-02
-3.057508832929321449e-02
-3.267002231552154634e-02
-3.592312951204885973e-02
-4.011590059060669844e-02
-4.494186543379161819e-02
-5.002054833053042049e-02
-5.491695885401598476e-02
-5.916573002455662728e-02
-6.229869174545200200e-02
-6.387440191577771487e-02
-6.350796781899939458e-02
-6.089939074659189711e-02
-5.585866658408096541e-02
-4.832597822750677591e-02
-3.838552018836237367e-02
-2.627179351903390081e-02
-1.236758675098093528e-02
2.806703023376413021e-03
1.861227817830089781e-02
3.431905811776787135e-02
4.913961295260931006e-02
6.226838846690233020e-02
7.292433438215577268e-02
8.039477574049433417e-02
8.407820429144513552e-02
8.352362590757950178e-02
7.846418734854214427e-02
6.884302057664926089e-02
5.482957728978780920e-02
3.682516583638830582e-02
1.545692608197968623e-02
-8.439940771479048989e-03
-3.385126081792248082e-02
-5.962326270354249141e-02
-8.451063900771839388e-02
-1.072311929887490994e-01
-1.265245662796045667e-01
-1.412122598062803269e-01
-1.502560152450788944e-01
-1.528116278581741483e-01
-1.482754170313384801e-01
-1.363208823176189077e-01
-1.169235077654021959e-01
-9.037222471833877835e-02
-5.726667673838298916e-02
-1.850011786066672187e-02
2.477151795489568320e-02
7.117314876421308723e-02
1.191648144443101659e-01
1.671042712095503480e-01
2.133150639694653961e-01
2.561569351640692327e-01
2.940952895142781021e-01
3.257664583783660417e-01
3.500356947612611735e-01
3.660451713225407189e-01
3.732497321306588733e-01
3.714387399480833518e-01
3.607430344762921903e-01
3.416267386006964224e-01
3.148643824511737632e-01
2.815045213386733747e-01
2.428216676587169887e-01
2.002589056461942241e-01
1.553639845437015110e-01
1.097219687509376485e-01
6.488765016075108416e-02
2.232089278055069195e-02
-1.667211337400142240e-02
-5.098905163800315776e-02
-7.977096035218547709e-02
-1.024293937015728351e-01
-1.186602971039342619e-01
-1.284443075309991689e-01
-1.320338653875463286e-01
-1.299281668626077468e-01
-1.228375615835138462e-01
-1.116394812737855902e-01
-9.732834781300890581e-02
-8.096213748977992841e-02
-6.360836315556923914e-02
-4.629217651193107130e-02
-2.994909539770142584e-02
-1.538453949625635288e-02
-3.241932584435648201e-03
6.019374593164883609e-03
1.213566053818837531e-02
1.503974079819575711e-02
1.485166054022273897e-02
1.186012390701805634e-02
6.496062757217708171e-03
-6.998926235298770634e-04
-9.114025360028556871e-03
-1.809807553200622199e-02
-2.700755018560049153e-02
-3.523773807152690701e-02
-4.225557927363444988e-02
-4.762584467868441473e-02
-5.103045838891750313e-02
-5.228022390984241735e-02
-5.131866711374467177e-02
-4.821815944251921920e-02
-4.316890863794003996e-02
-3.646177869801440347e-02
-2.846620634933950955e-02
-1.960470367124435981e-02
-1.032556584068393055e-02
-1.075435417584580866e-03
7.726688198377636152e-03
1.571255635335751244e-02
2.258368521128218537e-02
2.812535346130277600e-02
3.221499023624698615e-02
3.482471057565864059e-02
3.601810666283689760e-02
3.594173405502348179e-02
3.481202445327454681e-02
3.289859501952219212e-02
3.050509654404546037e-02
2.794884177510862863e-02
2.554047738543884644e-02
2.356491024511825003e-02
2.226457661074349517e-02
2.182596124251109590e-02
2.237004535988398532e-02
2.394710265430983337e-02
2.653598806598901627e-02
3.004779121011240742e-02
3.433347165628540532e-02
3.919487068996879708e-02
4.439831622844121056e-02
4.968991283292117922e-02
5.481154281494307612e-02
5.951659908667281118e-02
6.358452369020888006e-02
6.683333236367068608e-02
6.912945707104650728e-02
7.039442374529868152e-02
7.060809013308828874e-02
6.980838408780988547e-02
6.808769390298810564e-02
6.558625568043727205e-02
6.248304809876533555e-02
5.898483292172829184e-02
5.531406398384436374e-02
5.169642485275781352e-02
4.834874520555049876e-02
4.546799096857152833e-02
4.322192823703312897e-02
4.174193340490534032e-02
4.111827092834643288e-02
4.139799572923155702e-02
4.258547021728002063e-02
4.464532645094426710e-02
4.750756184464249854e-02
5.107433989275798891e-02
5.522798203085216989e-02
5.983958710710181317e-02
6.477770241056680922e-02
6.991649446785459798e-02
7.514292562336796766e-02
8.036252902607883553e-02
8.550348335845195380e-02
9.051881195617521303e-02
9.538666023590462728e-02
1.001087325377094661e-01
1.047070862599475266e-01
1.092195807663266516e-01
1.136943550562276445e-01
1.181837577286213581e-01
1.227381729945670602e-01
1.274001772719032255e-01
1.321994237436580899e-01
1.371485905561588559e-01
1.422406468836450721e-01
1.474475956989347580e-01
1.527207494634992280e-01
1.579924917947920782e-01
1.631793811952082507e-01
1.681863682096975954e-01
1.729118298766355588e-01
1.772530790268995460e-01
1.811119829978840579e-01
1.844003277063738788e-01
1.870445877255874079e-01
1.889898089448345808e-01
1.902023739888332732e-01
1.906714971119767843e-01
1.904093797399828980e-01
1.894500444282913587e-01
1.878469481353406134e-01
1.856695503227500932e-01
1.829990727621897129e-01
1.799237326883374732e-01
1.765337565769715122e-01
1.729164872795121710e-01
1.691518827694635796e-01
1.653086717079522983e-01
1.614413821279440941e-01
1.575883983307178882e-01
1.537711316437299636e-01
1.499943178641160724e-01
1.462473826397742427e-01
1.425067500562104961e-01
1.387389137379003434e-01
1.349040466501382207e-01
1.309598982625593822e-01
1.268657169060332657e-01
1.225859412807229626e-01
1.180934274438083659e-01
1.133720141016343330e-01
1.084182771699965797e-01
1.032423808022894796e-01
9.786799276523373836e-02
9.233129299749687213e-02
8.667916172374739991e-02
8.096668390676552141e-02
7.525414708426725330e-02
6.960373762041704992e-02
6.407615433891750145e-02
5.872735829313983913e-02
5.360566300057112432e-02
4.874934256176897268e-02
4.418489731507522361e-02
3.992607114590970147e-02
3.597366405414000740e-02
3.231613161856001365e-02
2.893091290557164852e-02
2.578638328601466981e-02
2.284429129460210234e-02
2.006251133451365104e-02
1.739792815248979857e-02
1.480926534996171266e-02
1.225967863983794086e-02
9.718954359213747424e-03
7.165183312646122848e-03
4.585817188338434103e-03
1.978057071709668664e-03
-6.514318669111343000e-04
-3.287441580632590073e-03
-5.907699918543166638e-03
-8.484794191268617627e-03
-1.098840039501640040e-02
-1.338766217100371622e-02
-1.565355728562911955e-02
-1.776109372045182530e-02
-1.969119200464134606e-02
-2.143213385711655386e-02
-2.298048813000643995e-02
-2.434146104152465351e-02
-2.552865650053986676e-02
-2.656327142962185833e-02
-2.747278767674312880e-02
-2.828925428245411197e-02
-2.904727929882938015e-02
-2.978186777110129052e-02
-3.052625058708908698e-02
-3.130984757473833507e-02
-3.215649751819486812e-02
-3.308306860192335858e-02
-3.409853650170361489e-02
-3.520358558447822528e-02
-3.639075393412268683e-02
-3.764510692989222335e-02
-3.894538979048059457e-02
-4.026557853835231043e-02
-4.157672359035862603e-02
-4.284896200041343056e-02
-4.405356436962645783e-02
-4.516488140431738213e-02
-4.616206266798842522e-02
-4.703043602584300320e-02
-4.776245932351209228e-02
-4.835818453499220182e-02
-4.882520699622999033e-02
-4.917810640516464410e-02
-4.943741971534210827e-02
-4.962821672056103028e-02
-4.977837519137923161e-02
-4.991667195798182854e-02
-5.007081839861678152e-02
-5.026557233417887349e-02
-5.052105333721165076e-02
-5.085137517209803448e-02
-5.126368832787541602e-02
-5.175769878394904933e-02
-5.232569793904836425e-02
-5.295310504602645379e-02
-5.361948969368741241e-02
-5.430001000371762615e-02
-5.496717437042213800e-02
-5.559281254070078115e-02
-5.615012708992787177e-02
-5.661568978150299802e-02
-5.697124954831451343e-02
-5.720522962018358831e-02
-5.731381020496066625e-02
-5.730151872657190948e-02
-5.718128065646945618e-02
-5.697391818778912292e-02
-5.670711941222231212e-02
-5.641393509355686897e-02
-5.613089108949657902e-02
-5.589583031522776801e-02
-5.574561687128652687e-02
-5.571384554349075036e-02
-5.582870131925588703e-02
-5.611110596314898558e-02
-5.657327221836840059e-02
-5.721776188299593918e-02
-5.803711334475200601e-02
-5.901406898750903574e-02
-6.012239544689695903e-02
-6.132825226947816871e-02
-6.259202958614631940e-02
-6.387054519039354894e-02
-6.511946782810473788e-02
-6.629581821740129777e-02
-6.736039333450283273e-02
-6.827996335686460638e-02
-6.902910411084159370e-02
-6.959155037896343210e-02
-6.996098530782324243e-02
-7.014121688806276844e-02
-7.014573163853303484e-02
-6.999665577274370720e-02
-6.972319257188556996e-02
-6.935963909297358787e-02
-6.894311322946239384e-02
-6.851114161325380647e-02
-6.809926875391240919e-02
-6.773884686845055292e-02
-6.745515464601277433e-02
-6.726597160021757782e-02
-6.718070455088609449e-02
-6.720012560525576162e-02
-6.731673934495378819e-02
-6.751575349119449954e-02
-6.777658480572457123e-02
-6.807479354364509572e-02
-6.838430784834588494e-02
-6.867977650079949703e-02
-6.893887619009961276e-02
-6.914439881564729551e-02
-6.928595602279813415e-02
-6.936116125620075956e-02
-6.937618324288777338e-02
-6.934560669642378383e-02
-6.929158377300094485e-02
-6.924231017694335022e-02
-6.922990966891176545e-02
-6.928785637748130499e-02
-6.944810283429533881e-02
-6.973810991973390661e-02
-7.017799090549869945e-02
-7.077798366643034411e-02
-7.153645263537074250e-02
-7.243859514129973032e-02
-7.345598696997512889e-02
-7.454705117518108104e-02
-7.565847565288900956e-02
-7.672754204430491665e-02
-7.768526534554437424e-02
-7.846018434358488503e-02
-7.898259160257498079e-02
-7.918895205738413212e-02
-7.902623428585593690e-02
-7.845587051585262151e-02
-7.745707155222741891e-02
-7.602925115180843296e-02
-7.419335985551850365e-02
-7.199198858184825689e-02
-6.948817414227052847e-02
-6.676291802208764170e-02
-6.391151153322750800e-02
-6.103883966318324195e-02
-5.825390730365866826e-02
-5.566389034599512203e-02
-5.336805613234304330e-02
-5.145191949639471574e-02
-4.998200022414664434e-02
-4.900152421591778829e-02
-4.852736471489713793e-02
-4.854845377406843271e-02
-4.902581108153762635e-02
-4.989424207474454226e-02
-5.106565552471156039e-02
-5.243384863655640299e-02
-5.388051168279345965e-02
-5.528212041351019540e-02
-5.651731883121531574e-02
-5.747435197872685642e-02
-5.805809160665925672e-02
-5.819620910082010101e-02
-5.784408960912040820e-02
-5.698814785025180935e-02
-5.564729580859270608e-02
-5.387242081597427151e-02
-5.174385292129309727e-02
-4.936692594878935164e-02
-4.686585930894880681e-02
-4.437629974667674226e-02
-4.203695623095054373e-02
-3.998083094691488176e-02
-3.832658920858841856e-02
-3.717061808899986552e-02
-3.658029594882081237e-02
-3.658893360365136904e-02
-3.719275549576948892e-02
-3.835017072729692694e-02
-3.998344586281966234e-02
-4.198274244188401200e-02
-4.421233068331312938e-02
-4.651864702108293725e-02
-4.873973582436599838e-02
-5.071551354990915667e-02
-5.229822419856787474e-02
-5.336242322716908126e-02
-5.381383659620223026e-02
-5.359649283435206912e-02
-5.269761708224805774e-02
-5.114990248036060255e-02
-4.903092908407468559e-02
-4.645967479344042389e-02
-4.359024631249538290e-02
-4.060313934127904312e-02
-3.769450479069266779e-02
-3.506404050376484699e-02
-3.290223606949457813e-02
-3.137776389268525506e-02
-3.062582707488627209e-02
-3.073824123026628816e-02
-3.175594362462499931e-02
-3.366449242015652488e-02
-3.639294810131003810e-02
-3.981632774028088378e-02
-4.376160228052065893e-02
-4.801698060646395622e-02
-5.234400607473247563e-02
-5.649179511157726569e-02
-6.021258684951540097e-02
-6.327765853264055718e-02
-6.549260277738724878e-02
-6.671096505649856678e-02
-6.684530512736708285e-02
-6.587487294123063608e-02
-6.384927180667324120e-02
-6.088771032655630744e-02
-5.717370707220764681e-02
-5.294539323240077255e-02
-4.848184184718051098e-02
-4.408612012602453750e-02
-4.006599689788270524e-02
-3.671342442995590566e-02
-3.428403952319433040e-02
-3.297798289604920302e-02
-3.292331212897499360e-02
-3.416318055322696556e-02
-3.664777552628131069e-02
-4.023176232001338115e-02
-4.467767689268896392e-02
-4.966536794397468507e-02
-5.480722519941207821e-02
-5.966856757193207683e-02
-6.379222349521404545e-02
-6.672603758379207217e-02
-6.805180193716964254e-02
-6.741395357387970633e-02
-6.454631350677432489e-02
-5.929517555876332585e-02
-5.163718575389457388e-02
-4.169068212519919797e-02
-2.971948042726423392e-02
-1.612847832027261563e-02
-1.450889659015650772e-03
1.367261194043216735e-02
2.852209050379809346e-02
4.233268965587742849e-02
5.433352581406057646e-02
6.378921637950160650e-02
7.004189849818419356e-02
7.255147611073053948e-02
7.093183588821680430e-02
6.498089984910943029e-02
5.470263057175191873e-02
4.031946428756404827e-02
2.227410091369934689e-02
1.220106409133742392e-03
-2.199864521931723174e-02
-4.637907498819326263e-02
-7.079935948534439583e-02
-9.406703580115016727e-02
-1.149725885064505210e-01
-1.323460091751169354e-01
-1.451135948332218373e-01
-1.523521651689233869e-01
-1.533379367077775390e-01
-1.475874953268310474e-01
-1.348886483081368770e-01
-1.153193979907118638e-01
-8.925383894914144800e-02
-5.735441139463719196e-02
-2.055061332208781705e-02
1.999505177136095407e-02
6.293247104746327314e-02
1.067786625294954300e-01
1.499793755112633353e-01
1.909747043585042492e-01
2.282656470407136706e-01
2.604784710105769174e-01
2.864238383259493093e-01
3.051478848796504439e-01
3.159728335587227988e-01
3.185252284303817794e-01
3.127504806625094336e-01
2.989130859115177175e-01
2.775825725924739307e-01
2.496059350226324247e-01
2.160679588804929330e-01
1.782414255938231107e-01
1.375296574616270973e-01
9.540421298684588491e-02
5.334074494428312635e-02
1.275608294800615813e-02
-2.505050328851401303e-02
-5.894915720946189430e-02
-8.802208862995954120e-02
-1.115952079423203486e-01
-1.292575038122459608e-01
-1.408675608795019463e-01
-1.465472668823259439e-01
-1.466633958334213617e-01
-1.417983428226017306e-01
-1.327117964030174457e-01
-1.202955416144059209e-01
-1.055238707625453520e-01
-8.940222810778701568e-02
-7.291672361491408072e-02
-5.698702249165684547e-02
-4.242486164527939363e-02
-2.990007774170925364e-02
-1.991557700054873842e-02
-1.279216014462441348e-02
-8.663567027036042298e-03
-7.481554066582723345e-03
-9.030293992578149881e-03
-1.294891881731931836e-02
-1.876063721160984091e-02
-2.590656556963827697e-02
-3.378223079612730634e-02
-4.177463911751224529e-02
-4.929785849127714392e-02
-5.582522624643298376e-02
-6.091655569884873306e-02
-6.423905798513133980e-02
-6.558109680020740573e-02
-6.485832955871435879e-02
-6.211223350078556860e-02
-5.750144385001938752e-02
-5.128672015699341225e-02
-4.381068532606267885e-02
-3.547373334453685079e-02
-2.670766449239287896e-02
-1.794867470072954857e-02
-9.611297995455942919e-03
-2.064782411223126547e-03
4.386819527360081086e-03
9.519830759945767731e-03
1.320070004123727325e-02
1.538996694203989025e-02
1.614043806129155170e-02
1.558991094833778179e-02
1.394909016848132517e-02
1.148559921371291800e-02
8.505188906757339684e-03
5.331368311856848896e-03
2.284732889761580642e-03
-3.367634574103281074e-04
-2.275446403760245703e-03
-3.328488163886895047e-03
-3.358639422066187624e-03
-2.300617049442675675e-03
-1.629147423959146333e-04
2.974915972546216588e-03
6.969198814147933331e-03
1.162272451061113071e-02
1.669824717119557794e-02
2.193398418386786550e-02
2.706013056594146204e-02
3.181537218747744478e-02
3.596241780257378173e-02
3.930166205656891038e-02
4.168223380440640863e-02
4.300986585952938646e-02
4.325123106688857910e-02
4.243461240064299450e-02
4.064699726358025206e-02
3.802789536698468476e-02
3.476036307630073208e-02
3.105986497454873985e-02
2.716170775505543852e-02
2.330783797856697537e-02
1.973380162295470044e-02
1.665662164935542353e-02
1.426426385427384015e-02
1.270723819193749458e-02
1.209273134037142094e-02
1.248149690300065506e-02
1.388755324198900562e-02
1.628056664389610289e-02
1.959063985169579719e-02
2.371509194919187852e-02
2.852671269068789844e-02
3.388290765325306653e-02
3.963512299453934157e-02
4.563795012004197293e-02
5.175735915507419932e-02
5.787759120995608630e-02
6.390634666343014691e-02
6.977803242067123768e-02
7.545496659374539838e-02
8.092657526771790399e-02
8.620674455247794021e-02
9.132960365877218489e-02
9.634410516436489602e-02
1.013078315582970623e-01
1.062804896992993325e-01
1.113175562063362101e-01
1.164645075823019793e-01
1.217520125328429431e-01
1.271923846982906392e-01
1.327774980548186157e-01
1.384782612862289208e-01
1.442456387423928788e-01
1.500131013929499324e-01
1.557002981865154567e-01
1.612176620890314882e-01
1.664716104762520021e-01
1.713699691626847654e-01
1.758272447397848104e-01
1.797693904005093490e-01
1.831377541470516901e-01
1.858919614869248560e-01
1.880115629541691535e-01
1.894963642221243749e-01
1.903654473798671032e-01
1.906549798686262842e-01
1.904149869741437739e-01
1.897053295728778621e-01
1.885911768989659010e-01
1.871382919425636226e-01
1.854084528382385078e-01
1.834553180155722163e-01
1.813210067993005215e-01
1.790336139468609589e-01
1.766058097712176200e-01
1.740346019618281836e-01
1.713022560582048159e-01
1.683782939928888389e-01
1.652224194296492699e-01
1.617881591367822114e-01
1.580269651947381615e-01
1.538924959449618768e-01
1.493447858940794015e-01
1.443540260910963213e-01
1.389037061552887142e-01
1.329929144468178503e-01
1.266376508582600924e-01
1.198710732476523516e-01
1.127426690290627836e-01
1.053164134815988418e-01
9.766804094543725390e-02
8.988161052143282814e-02
8.204559048566251178e-02
7.424871287357565075e-02
6.657586012923251417e-02
5.910423889837745220e-02
5.190007284439950713e-02
4.501600844888048458e-02
3.848937806336354822e-02
3.234140624572139772e-02
2.657738286065197686e-02
2.118776354444814811e-02
1.615009912134753034e-02
1.143164419770206081e-02
6.992454743360905327e-03
2.788757379934008948e-03
-1.223639159118253402e-03
-5.086116703163438835e-03
-8.834412607698670719e-03
-1.249635365675644434e-02
-1.609029280279413235e-02
-1.962433190892334117e-02
-2.309635832395434338e-02
-2.649486702973949739e-02
-2.980048685438605946e-02
-3.298808264601775508e-02
-3.602926804891567331e-02
-3.889513817001203494e-02
-4.155901945000646525e-02
-4.399903601302938144e-02
-4.620030747400664939e-02
-4.815662120129739210e-02
-4.987146055732542133e-02
-5.135831670304569913e-02
-5.264026220237908588e-02
-5.374881619102780950e-02
-5.472218006233239146e-02
-5.560296590541982664e-02
-5.643557459833889456e-02
-5.726340433167558669e-02
-5.812608153573422393e-02
-5.905690459807202281e-02
-6.008067595136928202e-02
-6.121207176220560403e-02
-6.245466196620567262e-02
-6.380064950529841517e-02
-6.523134929707247176e-02
-6.671837780440424692e-02
-6.822547675501525188e-02
-6.971085224405544623e-02
-7.112987648510288308e-02
-7.243797560345562048e-02
-7.359351502574162929e-02
-7.456049463871958216e-02
-7.531087904262985522e-02
-7.582641297822578785e-02
-7.609980651685939457e-02
-7.613521670588127566e-02
-7.594799899148420297e-02
-7.556375007239246600e-02
-7.501671025895968736e-02
-7.434763521966511468e-02
-7.360128108430487315e-02
-7.282367126357484899e-02
-7.205932631237879638e-02
-7.134863891801827840e-02
-7.072556471953976576e-02
-7.021577682945599752e-02
-6.983539950890405024e-02
-6.959039630753084682e-02
-6.947664314045819134e-02
-6.948067025510626382e-02
-6.958101178301377698e-02
-6.975006098354080697e-02
-6.995629570274095044e-02
-7.016671470614412043e-02
-7.034931247208298100e-02
-7.047541913354812837e-02
-7.052174308972490591e-02
-7.047197597654544787e-02
-7.031785136262722058e-02
-7.005958767104016049e-02
-6.970568972620785897e-02
-6.927212876316658774e-02
-6.878096485329304732e-02
-6.825851515472237951e-02
-6.773320360933138273e-02
-6.723325036156453660e-02
-6.678437065035267017e-02
-6.640765251491219379e-02
-6.611777004180487138e-02
-6.592166533807745921e-02
-6.581779911200398570e-02
-6.579602925521822743e-02
-6.583813181433048611e-02
-6.591893244366629767e-02
-6.600797198292941703e-02
-6.607159054711771173e-02
-6.607528306602082624e-02
-6.598615806843199927e-02
-6.577532214587034076e-02
-6.542001584934944991e-02
-6.490534264469294268e-02
-6.422545996254011569e-02
-6.338413876718662632e-02
-6.239464256672513920e-02
-6.127892563529718783e-02
-6.006619990184274005e-02
-5.879096684611634371e-02
-5.749065160581114803e-02
-5.620300814786221427e-02
-5.496348443922928484e-02
-5.380274331785774022e-02
-5.274452744919230773e-02
-5.180403561321211825e-02
-5.098694367155846841e-02
-5.028915908418846864e-02
-4.969734574100314467e-02
-4.919019948733407976e-02
-4.874039824210142646e-02
-4.831709772027473204e-02
-4.788879874296329830e-02
-4.742637806232428282e-02
-4.690605458210025946e-02
-4.631205855879492322e-02
-4.563878372767583153e-02
-4.489223102696273532e-02
-4.409059622123796818e-02
-4.326390975060794009e-02
-4.245270201331410170e-02
-4.170573695571817840e-02
-4.107692642961689733e-02
-4.062160251048649307e-02
-4.039238022353901225e-02
-4.043488442925303322e-02
-4.078363897905668001e-02
-4.145842069542375607e-02
-4.246136472399034828e-02
-4.377507112802667133e-02
-4.536190707357169033e-02
-4.716462757817236479e-02
-4.910835457772852464e-02
-5.110386425214367284e-02
-5.305204189182168018e-02
-5.484927794717601307e-02
-5.639350451888292676e-02
-5.759051357023965700e-02
-5.836016128915297307e-02
-5.864205060365577926e-02
-5.840029761542849668e-02
-5.762702809470791193e-02
-5.634431529205025796e-02
-5.460435737245951382e-02
-5.248779651828688192e-02
-5.010019659590912028e-02
-4.756681480318412231e-02
-4.502591773064582026e-02
-4.262099601464784671e-02
-4.049231703462722459e-02
-3.876831602307037605e-02
-3.755735717617053604e-02
-3.694039511561749561e-02
-3.696503196889325271e-02
-3.764139735418613186e-02
-3.894018093851796952e-02
-4.079302474120863331e-02
-4.309534224370582117e-02
-4.571148156193482331e-02
-4.848199973281215602e-02
-5.123267405364513583e-02
-5.378475362980139618e-02
-5.596585829061184736e-02
-5.762086978366838530e-02
-5.862213696268900320e-02
-5.887833513698462196e-02
-5.834138037256467874e-02
-5.701089996083268108e-02
-5.493589547215586844e-02
-5.221339754649895887e-02
-4.898409269250359604e-02
-4.542509087270449331e-02
-4.174018726668823204e-02
-3.814814030393935684e-02
-3.486963003050790044e-02
-3.211366596703708193e-02
-3.006427436111884163e-02
-2.886830543661350265e-02
-2.862515979092324775e-02
-2.937914019214573833e-02
-3.111499475283984947e-02
-3.375703689012516523e-02
-3.717201666643023955e-02
-4.117568901326156688e-02
-4.554279068102069089e-02
-5.001991408169315090e-02
-5.434056647244328575e-02
-5.824154082772458468e-02
-6.147961129362407295e-02
-6.384751033826487066e-02
-6.518815196410193691e-02
-6.540613737871107947e-02
-6.447571430962009686e-02
-6.244455245803659516e-02
-5.943293562256139750e-02
-5.562824281611654376e-02
-5.127488071179862189e-02
-4.666012074140275107e-02
-4.209656824590459617e-02
-3.790223095556292249e-02
-3.437934365181713470e-02
-3.179323163301183558e-02
-3.035254779677431722e-02
-3.019219046753419608e-02
-3.136010050482301165e-02
-3.380895009771597848e-02
-3.739348045633270057e-02
-4.187393392044728990e-02
-4.692567463492626489e-02
-5.215472029649706465e-02
-5.711853698315216832e-02
-6.135110208990171565e-02
-6.439093792414196660e-02
-6.581058080090280982e-02
-6.524579322627242772e-02
-6.242276283252255059e-02
-5.718156807841534572e-02
-4.949432880922577382e-02
-3.947669570955544133e-02
-2.739165583796981940e-02
-1.364502678404734895e-02
1.227540907745818671e-03
1.658175820270720371e-02
3.169331689771965471e-02
4.579270974773004543e-02
5.810462684010267442e-02
6.788997897773355050e-02
7.448837073517367013e-02
7.735873020925768118e-02
7.611580934553562050e-02
7.056040133814457660e-02
6.070137671910785099e-02
4.676800667246825555e-02
2.921150400907264813e-02
8.695246666468292238e-03
-1.392627190192193345e-02
-3.763912652340541815e-02
-6.131106175092805588e-02
-8.374026504978702989e-02
-1.037096147531259560e-01
-1.200438585604937519e-01
-1.316669560279192241e-01
-1.376567355224888600e-01
-1.372940796525221330e-01
-1.301040626410187584e-01
-1.158868101893643365e-01
-9.473632096098676125e-02
-6.704605636128335711e-02
-3.350074344385999686e-02
4.945487770517148496e-03
4.710383156284456835e-02
9.159694941197685236e-02
1.369144977802235208e-01
1.814755249809714144e-01
2.236948590897767375e-01
2.620503890548782078e-01
2.951480760178026297e-01
3.217816256280091047e-01
3.409840004206923791e-01
3.520683420555050236e-01
3.546563862481093565e-01
3.486930625187881216e-01
3.344466447922178620e-01
3.124945229292073190e-01
2.836953629847486780e-01
2.491490796998010737e-01
2.101466249088695115e-01
1.681120707543843906e-01
1.245398132971382577e-01
8.092992349187692891e-02
3.872471945608296079e-02
-7.504741411835544286e-04
-3.633966971597179380e-02
-6.709934217942335744e-02
-9.233051435220271386e-02
-1.115985634758117628e-01
-1.247401445917415003e-01
-1.318572793047430303e-01
-1.332992949887209233e-01
-1.296338870201032833e-01
-1.216090853013961220e-01
-1.101083113707091166e-01
-9.610099458183356258e-02
-8.059136326034645192e-02
-6.456803460913498882e-02
-4.895689849587270964e-02
-3.457953526187454441e-02
-2.211904307196557729e-02
-1.209469854570380254e-02
-4.846361718279847478e-03
-5.289921795620728317e-04
8.829025410494149850e-04
-4.184170081274496433e-04
-4.095682426714928812e-03
-9.694910553198224368e-03
-1.667839890066372469e-02
-2.446041545925855404e-02
-3.244351331071152617e-02
-4.005345426256991248e-02
-4.677088825965333707e-02
-5.215819382799192355e-02
-5.588022184277616211e-02
-5.771807879598433305e-02
-5.757551273784934642e-02
-5.547789980345149002e-02
-5.156424714466584236e-02
-4.607300605556931272e-02
-3.932280714927881976e-02
-3.168947154432402019e-02
-2.358080730080766227e-02
-1.541076270135819347e-02
-7.574477533894751792e-03
-4.256551692229611542e-04
5.742517940362105826e-03
1.071193845553837856e-02
1.434897710587961471e-02
1.660836603808512474e-02
1.753159307367376657e-02
1.724013836977833503e-02
1.592418147241969964e-02
1.382765081968662969e-02
1.123067052090100104e-02
8.430572351687417795e-03
5.722679902696896879e-03
3.382037348261769747e-03
1.647151783004897809e-03
7.066544367492668798e-04
6.895740548720647725e-04
1.659670069627787068e-03
3.614009551857603510e-03
6.485707145791686293e-03
1.015049711405940740e-02
1.443658592512342929e-02
1.913705495669013393e-02
2.402395498595354464e-02
2.886316354127904313e-02
3.342906485570932423e-02
3.751815900395207709e-02
4.096080661011089474e-02
4.363046064746222558e-02
4.544991651240931629e-02
4.639431367191926975e-02
4.649083343666594870e-02
4.581524441546439702e-02
4.448563734320359897e-02
4.265385286952920463e-02
4.049523064235075603e-02
3.819738890889566585e-02
3.594877737023523950e-02
3.392773175478319692e-02
3.229269866980345738e-02
3.117419951052977090e-02
3.066896955729537036e-02
3.083655280412397198e-02
3.169846470892569851e-02
3.323986529838003634e-02
3.541352446446410090e-02
3.814571992085297875e-02
4.134359460021678340e-02
4.490342056081543520e-02
4.871917492032897673e-02
5.269083156320097244e-02
5.673180926901680299e-02
6.077508912858554935e-02
6.477761612163072946e-02
6.872272417072593231e-02
7.262046218341748627e-02
7.650584169842306048e-02
8.043516489333638053e-02
8.448071683572092039e-02
8.872420956133506009e-02
9.324944227280415610e-02
9.813468688875952306e-02
1.034453193710683505e-01
1.092271947357244394e-01
1.155012093421060176e-01
1.222594122453439791e-01
1.294629237168059832e-01
1.370418005032418562e-01
1.448968618444983758e-01
1.529033657097987886e-01
1.609163090369720162e-01
1.687770260179285997e-01
1.763206807303560608e-01
1.833841990312595760e-01
1.898141623909159192e-01
1.954741941493662871e-01
2.002514052486379370e-01
2.040615294308976979e-01
2.068524622296894766e-01
2.086060187106195674e-01
2.093378349690191431e-01
2.090954509603829281e-01
2.079547203988677539e-01
2.060147905800027435e-01
2.033919753578088130e-01
2.002129035180252870e-01
1.966073593639465766e-01
1.927012408528941678e-01
1.886100431372944308e-01
1.844332335753125496e-01
1.802498214525231068e-01
1.761153458099002922e-01
1.720604136234943349e-01
1.680908237266166283e-01
1.641892153913285801e-01
1.603180904819831998e-01
1.564239795971942293e-01
1.524424604958418417e-01
1.483036943179862066e-01
1.439381241247859322e-01
1.392819815661055227e-01
1.342822703210060642e-01
1.289009374163849475e-01
1.231180024430412606e-01
1.169334857671179700e-01
1.103680555490220566e-01
1.034623944866870926e-01
9.627536565131761259e-02
8.888112781026512310e-02
8.136541000963112835e-02
7.382119961405754494e-02
6.634412513235947439e-02
5.902782392222273578e-02
5.195957518744760695e-02
4.521645179064976566e-02
3.886220260958166833e-02
3.294502339923485040e-02
2.749631244083915182e-02
2.253044145908990672e-02
1.804550704723144675e-02
1.402496707701069573e-02
1.044001399146871588e-02
7.252495860529427525e-03
4.418168588395812203e-03
1.890050249870585701e-03
-3.783484850983023784e-04
-2.430126269903794527e-03
-4.302602870445800497e-03
-6.025576908396310799e-03
-7.620316230610266368e-03
-9.099314181408205138e-03
-1.046679072570838240e-02
-1.171986629098386093e-02
-1.285029113974322373e-02
-1.384657739036076161e-02
-1.469635624177204059e-02
-1.538877109423655333e-02
-1.591671876187926091e-02
-1.627876515612271605e-02
-1.648058787061453673e-02
-1.653583379165983469e-02
-1.646632289287071338e-02
-1.630157654139935061e-02
-1.607769699526528234e-02
-1.583567084424881283e-02
-1.561920998202291633e-02
-1.547227669025212464e-02
-1.543646230973423975e-02
-1.554840040250610352e-02
-1.583739455050581571e-02
-1.632342813666570400e-02
-1.701569945819493904e-02
-1.791179189808291342e-02
-1.899754805102565891e-02
-2.024767095404905390e-02
-2.162702837096608724e-02
-2.309258999351498226e-02
-2.459588576960631059e-02
-2.608583890318026330e-02
-2.751180144122870180e-02
-2.882660582849635306e-02
-2.998944282248859269e-02
-3.096838529426657050e-02
-3.174239792272286198e-02
-3.230270345579085156e-02
-3.265341511975657779e-02
-3.281138945583910588e-02
-3.280530171621406227e-02
-3.267399368308165214e-02
-3.246418893012403828e-02
-3.222770970553775344e-02
-3.201836094833718921e-02
-3.188866807488040939e-02
-3.188666504694746828e-02
-3.205292713496975254e-02
-3.241802880594745612e-02
-3.300058222457264573e-02
-3.380597741209011298e-02
-3.482590325481101784e-02
-3.603868185370405486e-02
-3.741039993244255762e-02
-3.889677320967524499e-02
-4.044563560890384463e-02
-4.199990762073138595e-02
-4.350086925782617464e-02
-4.489154473079684515e-02
-4.611999906587203879e-02
-4.714235212658449137e-02
-4.792533210034258251e-02
-4.844821807553424675e-02
-4.870405751018207913e-02
-4.870008753471285340e-02
-4.845733626354763873e-02
-4.800942881729157452e-02
-4.740066977853248098e-02
-4.668351622819812835e-02
-4.591559129113063908e-02
-4.515641448361408516e-02
-4.446404123251392060e-02
-4.389180826330521534e-02
-4.348537420330097353e-02
-4.328022619436269758e-02
-4.329979451918854888e-02
-4.355428035174176149e-02
-4.404025854749837182e-02
-4.474107100881190985e-02
-4.562797910866231432e-02
-4.666199872965151596e-02
-4.779630180402488770e-02
-4.897903553023536666e-02
-5.015638739786565381e-02
-5.127571135272009778e-02
-5.228852929898315793e-02
-5.315323201322956492e-02
-5.383732422451575211e-02
-5.431908848582129440e-02
-5.458857969195907156e-02
-5.464790428586609183e-02
-5.451078271268429420e-02
-5.420143776573092126e-02
-5.375289221452352051e-02
-5.320479420748572275e-02
-5.260091605492590167e-02
-5.198648949355771931e-02
-5.140554753780921665e-02
-5.089843892000669306e-02
-5.049966648994745622e-02
-5.023617664697643120e-02
-5.012619469984271742e-02
-5.017866302549133656e-02
-5.039329760489062032e-02
-5.076123675649240469e-02
-5.126621630201932261e-02
-5.188617079969877477e-02
-5.259513289747140552e-02
-5.336528456483242283e-02
-5.416900562794570856e-02
-5.498076784244163018e-02
-5.577873592374896217e-02
-5.654596016046650048e-02
-5.727107648349725327e-02
-5.794846737008528537e-02
-5.857787787020179299e-02
-5.916352275223657475e-02
-5.971276026034302159e-02
-6.023444238386169158e-02
-6.073707854748886664e-02
-6.122696690607413311e-02
-6.170645394580894644e-02
-6.217247779312383427e-02
-6.261553384029451552e-02
-6.301917386238907459e-02
-6.336011333398874901e-02
-6.360897854427997877e-02
-6.373167810206355199e-02
-6.369133578711640153e-02
-6.345067666612613788e-02
-6.297471923682196326e-02
-6.223359605927140242e-02
-6.120530611047795416e-02
-5.987819594883321550e-02
-5.825297443127990665e-02
-5.634408722629814792e-02
-5.418031183722223088e-02
-5.180447938356462501e-02
-4.927228339821380920e-02
-4.665019509706216927e-02
-4.401256511608841321e-02
-4.143804966049273453e-02
-3.900555054711717096e-02
-3.678989970829470851e-02
-3.485754673014598848e-02
-3.326252013540829250e-02
-3.204292816695127055e-02
-3.121824258957508341e-02
-3.078756986697747666e-02
-3.072906037662051851e-02
-3.100054064453952249e-02
-3.154137996723899162e-02
-3.227552550263725062e-02
-3.311556398173095411e-02
-3.396759830639139999e-02
-3.473666847205197916e-02
-3.533240228748485423e-02
-3.567455589314966896e-02
-3.569809915992624288e-02
-3.535751780181025511e-02
-3.463004212227860368e-02
-3.351756996226399471e-02
-3.204712558174496045e-02
-3.026978293750033633e-02
-2.825807560820157646e-02
-2.610201123628332412e-02
-2.390389920851769545e-02
-2.177228110149801235e-02
-1.981531819008200759e-02
-1.813403476793787675e-02
-1.681583663679216828e-02
-1.592871881746913895e-02
-1.551654490808679343e-02
-1.559572381468535621e-02
-1.615353055101086469e-02
-1.714822093790149132e-02
-1.851098081387544600e-02
-2.014963552044531786e-02
-2.195393187643872313e-02
-2.380210002240300271e-02
-2.556831328789360702e-02
-2.713059659734465626e-02
-2.837869298880495161e-02
-2.922138680178930359e-02
-2.959280267977107762e-02
-2.945725120787590773e-02
-2.881227251974071563e-02
-2.768963407835440399e-02
-2.615416238137947477e-02
-2.430042288801517042e-02
-2.224740013211827169e-02
-2.013146175603873489e-02
-1.809800783852291012e-02
-1.629230228925235627e-02
-1.485004956199264745e-02
-1.388831251213513973e-02
-1.349736275493450439e-02
-1.373401259467115811e-02
-1.461689904182317951e-02
-1.612407969699734475e-02
-1.819316318988027995e-02
-2.072404169428551657e-02
-2.358412881737308869e-02
-2.661584334570510010e-02
-2.964592809264797457e-02
-3.249606350174708697e-02
-3.499413672386190999e-02
-3.698546541999561676e-02
-3.834325717334942374e-02
-3.897761197772910829e-02
-3.884244695124098451e-02
-3.793983573582579427e-02
-3.632140415999247918e-02
-3.408660035193041699e-02
-3.137785112650596370e-02
-2.837281529379036271e-02
-2.527413651485905383e-02
-2.229727030073939617e-02
-1.965710114376238368e-02
-1.755416579288655160e-02
-1.616135022205644409e-02
-1.561192595654830456e-02
-1.598973425375057114e-02
-1.732221661156113299e-02
-1.957683165952208912e-02
-2.266120091961344382e-02
-2.642709965443734016e-02
-3.067816792845437165e-02
-3.518097554547879036e-02
-3.967884789753219760e-02
-4.390766286868655333e-02
-4.761267505759037705e-02
-5.056532389661212018e-02
-5.257894502820113780e-02
-5.352233374488954420e-02
-5.333020631320532084e-02
-5.200976560488201894e-02
-4.964279395888546859e-02
-4.638295725230338895e-02
-4.244829487959075887e-02
-3.810917402615757871e-02
-3.367228454575543067e-02
-2.946152464480094116e-02
-2.579685934039123787e-02
-2.297240746053124533e-02
-2.123511609887680091e-02
-2.076540462519971264e-02
-2.166109945975290205e-02
-2.392583603672663109e-02
-2.746288160163299491e-02
-3.207504199980810294e-02
-3.747097258866432384e-02
-4.327783643060881952e-02
-4.905986339402914481e-02
-5.434198452287449660e-02
-5.863737028194674489e-02
-6.147741059941461833e-02
-6.244245874213602554e-02
-6.119153525241478875e-02
-5.748916351831424160e-02
-5.122759017157341860e-02
-4.244283073849659804e-02
-3.132326661393487061e-02
-1.820989092190717848e-02
-3.587739361911580944e-03
1.193147464643495165e-02
2.763499969917587729e-02
4.274194839638294913e-02
5.644199495500303726e-02
6.793801284054787337e-02
7.649049699162879801e-02
8.146142416489067506e-02
